5.01036 1205.000
5.02707 1254.000
5.04378 1214.000
5.06049 1199.000
5.07720 1258.000
5.09391 1233.000
5.11062 1233.000
5.12733 1179.000
5.14405 1247.000
5.16076 1182.000
5.17747 1213.000
5.19418 1182.000
5.21089 1134.000
5.22760 1215.000
5.24431 1176.000
5.26102 1209.000
5.27774 1158.000
5.29445 1187.000
5.31116 1086.000
5.32787 1210.000
5.34458 1169.000
5.36129 1192.000
5.37800 1141.000
5.39471 1155.000
5.41143 1119.000
5.42814 1187.000
5.44485 1155.000
5.46156 1157.000
5.47827 1164.000
5.49498 1133.000
5.51169 1133.000
5.52841 1104.000
5.54512 1059.000
5.56183 1129.000
5.57854 1137.000
5.59525 1134.000
5.61196 1131.000
5.62867 1195.000
5.64538 1145.000
5.66210 1181.000
5.67881 1121.000
5.69552 1079.000
5.71223 1127.000
5.72894 1126.000
5.74565 1130.000
5.76236 1095.000
5.77907 1085.000
5.79579 1072.000
5.81250 1040.000
5.82921 1120.000
5.84592 1059.000
5.86263 1048.000
5.87934 1111.000
5.89605 1109.000
5.91276 1090.000
5.92948 1125.000
5.94619 1068.000
5.96290 1080.000
5.97961 1083.000
5.99632 1035.000
6.01303 1033.000
6.02974 1044.000
6.04645 1061.000
6.06317 1090.000
6.07988 1057.000
6.09659 1088.000
6.11330 1086.000
6.13001 1100.000
6.14672 1077.000
6.16343 1102.000
6.18014 1010.000
6.19686 1032.000
6.21357 1069.000
6.23028 1048.000
6.24699 1075.000
6.26370 1105.000
6.28041 1051.000
6.29712 1070.000
6.31383 1052.000
6.33055 1033.000
6.34726 1075.000
6.36397 1036.000
6.38068 1012.000
6.39739 1058.000
6.41410 1098.000
6.43081 1071.000
6.44752 1133.000
6.46424 1021.000
6.48095 1016.000
6.49766 1046.000
6.51437 1088.000
6.53108 1025.000
6.54779 1037.000
6.56450 1069.000
6.58122 1046.000
6.59793 1077.000
6.61464 1095.000
6.63135 1086.000
6.64806 1046.000
6.66477 1107.000
6.68148 1067.000
6.69819 1032.000
6.71491 1088.000
6.73162 1074.000
6.74833 1072.000
6.76504 1055.000
6.78175 1110.000
6.79846 1084.000
6.81517 1086.000
6.83188 990.000
6.84860 1111.000
6.86531 1094.000
6.88202 1139.000
6.89873 1126.000
6.91544 1059.000
6.93215 1067.000
6.94886 1053.000
6.96557 1060.000
6.98229 1091.000
6.99900 1110.000
7.01571 1135.000
7.03242 1095.000
7.04913 1019.000
7.06584 1107.000
7.08255 1154.000
7.09926 1093.000
7.11598 1114.000
7.13269 1142.000
7.14940 1140.000
7.16611 1138.000
7.18282 1059.000
7.19953 1123.000
7.21624 1062.000
7.23295 1092.000
7.24967 1157.000
7.26638 1134.000
7.28309 1094.000
7.29980 1156.000
7.31651 1113.000
7.33322 1080.000
7.34993 1044.000
7.36664 1135.000
7.38336 1172.000
7.40007 1132.000
7.41678 1108.000
7.43349 1158.000
7.45020 1127.000
7.46691 1155.000
7.48362 1196.000
7.50033 1169.000
7.51705 1154.000
7.53376 1109.000
7.55047 1210.000
7.56718 1105.000
7.58389 1163.000
7.60060 1136.000
7.61731 1114.000
7.63403 1183.000
7.65074 1181.000
7.66745 1178.000
7.68416 1176.000
7.70087 1105.000
7.71758 1131.000
7.73429 1138.000
7.75100 1155.000
7.76772 1194.000
7.78443 1161.000
7.80114 1164.000
7.81785 1232.000
7.83456 1080.000
7.85127 1135.000
7.86798 1187.000
7.88469 1214.000
7.90141 1202.000
7.91812 1227.000
7.93483 1134.000
7.95154 1165.000
7.96825 1208.000
7.98496 1223.000
8.00167 1184.000
8.01838 1184.000
8.03510 1205.000
8.05181 1212.000
8.06852 1201.000
8.08523 1193.000
8.10194 1215.000
8.11865 1186.000
8.13536 1135.000
8.15207 1249.000
8.16879 1145.000
8.18550 1228.000
8.20221 1260.000
8.21892 1173.000
8.23563 1203.000
8.25234 1167.000
8.26905 1161.000
8.28576 1217.000
8.30248 1178.000
8.31919 1170.000
8.33590 1163.000
8.35261 1136.000
8.36932 1178.000
8.38603 1149.000
8.40274 1248.000
8.41945 1232.000
8.43617 1131.000
8.45288 1142.000
8.46959 1239.000
8.48630 1232.000
8.50301 1176.000
8.51972 1146.000
8.53643 1224.000
8.55314 1225.000
8.56986 1248.000
8.58657 1228.000
8.60328 1204.000
8.61999 1196.000
8.63670 1149.000
8.65341 1204.000
8.67012 1196.000
8.68684 1273.000
8.70355 1202.000
8.72026 1146.000
8.73697 1199.000
8.75368 1215.000
8.77039 1153.000
8.78710 1231.000
8.80381 1193.000
8.82053 1203.000
8.83724 1205.000
8.85395 1189.000
8.87066 1213.000
8.88737 1209.000
8.90408 1190.000
8.92079 1204.000
8.93750 1131.000
8.95422 1194.000
8.97093 1173.000
8.98764 1202.000
9.00435 1249.000
9.02106 1199.000
9.03777 1145.000
9.05448 1237.000
9.07119 1228.000
9.08791 1207.000
9.10462 1149.000
9.12133 1226.000
9.13804 1190.000
9.15475 1225.000
9.17146 1193.000
9.18817 1198.000
9.20488 1227.000
9.22160 1172.000
9.23831 1193.000
9.25502 1240.000
9.27173 1263.000
9.28844 1211.000
9.30515 1242.000
9.32186 1207.000
9.33857 1172.000
9.35529 1227.000
9.37200 1203.000
9.38871 1198.000
9.40542 1183.000
9.42213 1249.000
9.43884 1221.000
9.45555 1214.000
9.47226 1226.000
9.48898 1207.000
9.50569 1190.000
9.52240 1233.000
9.53911 1204.000
9.55582 1195.000
9.57253 1236.000
9.58924 1223.000
9.60595 1221.000
9.62267 1199.000
9.63938 1167.000
9.65609 1190.000
9.67280 1199.000
9.68951 1170.000
9.70622 1189.000
9.72293 1148.000
9.73965 1256.000
9.75636 1163.000
9.77307 1233.000
9.78978 1232.000
9.80649 1185.000
9.82320 1193.000
9.83991 1272.000
9.85662 1248.000
9.87334 1141.000
9.89005 1219.000
9.90676 1160.000
9.92347 1185.000
9.94018 1241.000
9.95689 1224.000
9.97360 1248.000
9.99031 1248.000
10.00703 1174.000
10.02374 1176.000
10.04045 1174.000
10.05716 1179.000
10.07387 1163.000
10.09058 1193.000
10.10729 1142.000
10.12400 1223.000
10.14072 1184.000
10.15743 1215.000
10.17414 1192.000
10.19085 1190.000
10.20756 1157.000
10.22427 1213.000
10.24098 1210.000
10.25769 1223.000
10.27441 1121.000
10.29112 1133.000
10.30783 1168.000
10.32454 1202.000
10.34125 1169.000
10.35796 1218.000
10.37467 1152.000
10.39138 1212.000
10.40810 1201.000
10.42481 1133.000
10.44152 1170.000
10.45823 1103.000
10.47494 1171.000
10.49165 1202.000
10.50836 1187.000
10.52507 1234.000
10.54179 1164.000
10.55850 1136.000
10.57521 1183.000
10.59192 1178.000
10.60863 1134.000
10.62534 1141.000
10.64205 1167.000
10.65876 1127.000
10.67548 1161.000
10.69219 1102.000
10.70890 1138.000
10.72561 1188.000
10.74232 1186.000
10.75903 1056.000
10.77574 1113.000
10.79246 1152.000
10.80917 1147.000
10.82588 1125.000
10.84259 1135.000
10.85930 1092.000
10.87601 1198.000
10.89272 1200.000
10.90943 1139.000
10.92615 1140.000
10.94286 1114.000
10.95957 1146.000
10.97628 1119.000
10.99299 1152.000
11.00970 1143.000
11.02641 1171.000
11.04312 1165.000
11.05984 1091.000
11.07655 1161.000
11.09326 1146.000
11.10997 1072.000
11.12668 1153.000
11.14339 1086.000
11.16010 1103.000
11.17681 1200.000
11.19353 1096.000
11.21024 1105.000
11.22695 1094.000
11.24366 1124.000
11.26037 1089.000
11.27708 1127.000
11.29379 1068.000
11.31050 1138.000
11.32722 1082.000
11.34393 1121.000
11.36064 1119.000
11.37735 1116.000
11.39406 1142.000
11.41077 1118.000
11.42748 1162.000
11.44419 1075.000
11.46091 1087.000
11.47762 1087.000
11.49433 1171.000
11.51104 1199.000
11.52775 1187.000
11.54446 1149.000
11.56117 1205.000
11.57788 1161.000
11.59460 1264.000
11.61131 1160.000
11.62802 1215.000
11.64473 1140.000
11.66144 1140.000
11.67815 1113.000
11.69486 1077.000
11.71157 1077.000
11.72829 1089.000
11.74500 1055.000
11.76171 1060.000
11.77842 1096.000
11.79513 1028.000
11.81184 1027.000
11.82855 1036.000
11.84527 1006.000
11.86198 1028.000
11.87869 1004.000
11.89540 1012.000
11.91211 999.000
11.92882 1028.000
11.94553 935.000
11.96224 993.000
11.97896 992.000
11.99567 945.000
12.01238 977.000
12.02909 1020.000
12.04580 954.000
12.06251 939.000
12.07922 951.000
12.09593 972.000
12.11265 915.000
12.12936 985.000
12.14607 899.000
12.16278 943.000
12.17949 938.000
12.19620 906.000
12.21291 923.000
12.22962 885.000
12.24634 900.000
12.26305 902.000
12.27976 890.000
12.29647 931.000
12.31318 869.000
12.32989 886.000
12.34660 937.000
12.36331 851.000
12.38003 875.000
12.39674 843.000
12.41345 878.000
12.43016 865.000
12.44687 819.000
12.46358 844.000
12.48029 769.000
12.49700 841.000
12.51372 806.000
12.53043 791.000
12.54714 819.000
12.56385 841.000
12.58056 775.000
12.59727 816.000
12.61398 749.000
12.63069 761.000
12.64741 768.000
12.66412 726.000
12.68083 773.000
12.69754 766.000
12.71425 761.000
12.73096 715.000
12.74767 737.000
12.76438 777.000
12.78110 749.000
12.79781 760.000
12.81452 714.000
12.83123 708.000
12.84794 744.000
12.86465 713.000
12.88136 715.000
12.89808 764.000
12.91479 652.000
12.93150 715.000
12.94821 759.000
12.96492 717.000
12.98163 633.000
12.99834 664.000
13.01505 650.000
13.03177 699.000
13.04848 651.000
13.06519 662.000
13.08190 650.000
13.09861 637.000
13.11532 617.000
13.13203 628.000
13.14874 638.000
13.16546 640.000
13.18217 643.000
13.19888 576.000
13.21559 566.000
13.23230 581.000
13.24901 578.000
13.26572 622.000
13.28243 581.000
13.29915 543.000
13.31586 581.000
13.33257 587.000
13.34928 569.000
13.36599 578.000
13.38270 593.000
13.39941 546.000
13.41612 505.000
13.43284 537.000
13.44955 524.000
13.46626 593.000
13.48297 523.000
13.49968 581.000
13.51639 592.000
13.53310 523.000
13.54981 589.000
13.56653 558.000
13.58324 567.000
13.59995 553.000
13.61666 590.000
13.63337 608.000
13.65008 657.000
13.66679 717.000
13.68350 655.000
13.70022 716.000
13.71693 863.000
13.73364 951.000
13.75035 1093.000
13.76706 1209.000
13.78377 1245.000
13.80048 1168.000
13.81719 1080.000
13.83391 947.000
13.85062 761.000
13.86733 623.000
13.88404 550.000
13.90075 502.000
13.91746 488.000
13.93417 462.000
13.95089 420.000
13.96760 434.000
13.98431 424.000
14.00102 453.000
14.01773 458.000
14.03444 452.000
14.05115 384.000
14.06786 416.000
14.08458 424.000
14.10129 392.000
14.11800 409.000
14.13471 394.000
14.15142 389.000
14.16813 385.000
14.18484 352.000
14.20155 371.000
14.21827 350.000
14.23498 371.000
14.25169 432.000
14.26840 390.000
14.28511 327.000
14.30182 397.000
14.31853 351.000
14.33524 392.000
14.35196 352.000
14.36867 371.000
14.38538 345.000
14.40209 322.000
14.41880 366.000
14.43551 366.000
14.45222 390.000
14.46893 347.000
14.48565 386.000
14.50236 333.000
14.51907 355.000
14.53578 369.000
14.55249 354.000
14.56920 312.000
14.58591 331.000
14.60262 386.000
14.61934 332.000
14.63605 332.000
14.65276 322.000
14.66947 309.000
14.68618 341.000
14.70289 362.000
14.71960 366.000
14.73631 335.000
14.75303 304.000
14.76974 338.000
14.78645 310.000
14.80316 319.000
14.81987 326.000
14.83658 334.000
14.85329 341.000
14.87000 304.000
14.88672 325.000
14.90343 340.000
14.92014 341.000
14.93685 311.000
14.95356 305.000
14.97027 298.000
14.98698 294.000
15.00370 318.000
15.02041 304.000
15.03712 311.000
15.05383 294.000
15.07054 302.000
15.08725 309.000
15.10396 294.000
15.12067 306.000
15.13739 279.000
15.15410 299.000
15.17081 309.000
15.18752 305.000
15.20423 300.000
15.22094 314.000
15.23765 288.000
15.25436 320.000
15.27108 286.000
15.28779 273.000
15.30450 298.000
15.32121 323.000
15.33792 276.000
15.35463 295.000
15.37134 290.000
15.38805 308.000
15.40477 286.000
15.42148 279.000
15.43819 267.000
15.45490 262.000
15.47161 321.000
15.48832 288.000
15.50503 305.000
15.52174 307.000
15.53846 242.000
15.55517 276.000
15.57188 285.000
15.58859 323.000
15.60530 279.000
15.62201 316.000
15.63872 279.000
15.65543 268.000
15.67215 300.000
15.68886 275.000
15.70557 283.000
15.72228 300.000
15.73899 255.000
15.75570 275.000
15.77241 271.000
15.78912 288.000
15.80584 276.000
15.82255 283.000
15.83926 255.000
15.85597 279.000
15.87268 303.000
15.88939 283.000
15.90610 276.000
15.92281 295.000
15.93953 287.000
15.95624 315.000
15.97295 339.000
15.98966 341.000
16.00637 330.000
16.02308 337.000
16.03979 362.000
16.05651 338.000
16.07322 380.000
16.08993 405.000
16.10664 378.000
16.12335 387.000
16.14006 363.000
16.15677 327.000
16.17348 332.000
16.19020 322.000
16.20691 323.000
16.22362 251.000
16.24033 261.000
16.25704 305.000
16.27375 277.000
16.29046 301.000
16.30717 300.000
16.32389 269.000
16.34060 267.000
16.35731 277.000
16.37402 260.000
16.39073 279.000
16.40744 278.000
16.42415 262.000
16.44086 306.000
16.45758 276.000
16.47429 272.000
16.49100 280.000
16.50771 270.000
16.52442 256.000
16.54113 254.000
16.55784 278.000
16.57455 278.000
16.59127 269.000
16.60798 241.000
16.62469 273.000
16.64140 280.000
16.65811 232.000
16.67482 261.000
16.69153 245.000
16.70824 267.000
16.72496 269.000
16.74167 277.000
16.75838 274.000
16.77509 239.000
16.79180 265.000
16.80851 265.000
16.82522 274.000
16.84193 271.000
16.85865 277.000
16.87536 268.000
16.89207 279.000
16.90878 268.000
16.92549 259.000
16.94220 267.000
16.95891 279.000
16.97562 270.000
16.99234 268.000
17.00905 262.000
17.02576 277.000
17.04247 271.000
17.05918 259.000
17.07589 242.000
17.09260 247.000
17.10932 270.000
17.12603 272.000
17.14274 283.000
17.15945 267.000
17.17616 251.000
17.19287 260.000
17.20958 269.000
17.22629 226.000
17.24301 256.000
17.25972 225.000
17.27643 241.000
17.29314 240.000
17.30985 240.000
17.32656 245.000
17.34327 259.000
17.35998 293.000
17.37670 290.000
17.39341 261.000
17.41012 272.000
17.42683 275.000
17.44354 256.000
17.46025 264.000
17.47696 248.000
17.49367 253.000
17.51039 273.000
17.52710 271.000
17.54381 265.000
17.56052 285.000
17.57723 261.000
17.59394 248.000
17.61065 296.000
17.62736 272.000
17.64408 277.000
17.66079 269.000
17.67750 246.000
17.69421 279.000
17.71092 265.000
17.72763 256.000
17.74434 261.000
17.76105 270.000
17.77777 238.000
17.79448 245.000
17.81119 247.000
17.82790 272.000
17.84461 262.000
17.86132 280.000
17.87803 267.000
17.89474 270.000
17.91146 239.000
17.92817 272.000
17.94488 252.000
17.96159 262.000
17.97830 254.000
17.99501 254.000
18.01172 275.000
18.02843 261.000
18.04515 227.000
18.06186 247.000
18.07857 249.000
18.09528 229.000
18.11199 263.000
18.12870 254.000
18.14541 255.000
18.16213 257.000
18.17884 268.000
18.19555 234.000
18.21226 254.000
18.22897 244.000
18.24568 249.000
18.26239 257.000
18.27910 300.000
18.29582 230.000
18.31253 251.000
18.32924 274.000
18.34595 264.000
18.36266 255.000
18.37937 278.000
18.39608 239.000
18.41279 260.000
18.42951 242.000
18.44622 226.000
18.46293 244.000
18.47964 285.000
18.49635 243.000
18.51306 258.000
18.52977 278.000
18.54648 244.000
18.56320 284.000
18.57991 257.000
18.59662 239.000
18.61333 260.000
18.63004 272.000
18.64675 240.000
18.66346 231.000
18.68017 238.000
18.69689 254.000
18.71360 262.000
18.73031 233.000
18.74702 286.000
18.76373 234.000
18.78044 243.000
18.79715 270.000
18.81386 242.000
18.83058 245.000
18.84729 257.000
18.86400 268.000
18.88071 272.000
18.89742 255.000
18.91413 257.000
18.93084 257.000
18.94755 258.000
18.96427 231.000
18.98098 223.000
18.99769 265.000
19.01440 261.000
19.03111 265.000
19.04782 246.000
19.06453 320.000
19.08124 242.000
19.09796 242.000
19.11467 272.000
19.13138 215.000
19.14809 254.000
19.16480 267.000
19.18151 243.000
19.19822 269.000
19.21494 279.000
19.23165 262.000
19.24836 255.000
19.26507 265.000
19.28178 252.000
19.29849 256.000
19.31520 280.000
19.33191 271.000
19.34863 283.000
19.36534 280.000
19.38205 263.000
19.39876 289.000
19.41547 292.000
19.43218 303.000
19.44889 279.000
19.46560 319.000
19.48232 363.000
19.49903 364.000
19.51574 375.000
19.53245 414.000
19.54916 446.000
19.56587 491.000
19.58258 527.000
19.59929 542.000
19.61601 535.000
19.63272 467.000
19.64943 510.000
19.66614 439.000
19.68285 385.000
19.69956 362.000
19.71627 340.000
19.73298 300.000
19.74970 278.000
19.76641 303.000
19.78312 302.000
19.79983 267.000
19.81654 288.000
19.83325 253.000
19.84996 260.000
19.86667 271.000
19.88339 239.000
19.90010 276.000
19.91681 273.000
19.93352 233.000
19.95023 284.000
19.96694 260.000
19.98365 262.000
20.00036 274.000
20.01708 301.000
20.03379 264.000
20.05050 280.000
20.06721 330.000
20.08392 303.000
20.10063 284.000
20.11734 263.000
20.13405 257.000
20.15077 290.000
20.16748 301.000
20.18419 319.000
20.20090 274.000
20.21761 320.000
20.23432 335.000
20.25103 317.000
20.26775 372.000
20.28446 394.000
20.30117 379.000
20.31788 393.000
20.33459 409.000
20.35130 392.000
20.36801 354.000
20.38472 351.000
20.40144 335.000
20.41815 303.000
20.43486 277.000
20.45157 304.000
20.46828 292.000
20.48499 269.000
20.50170 275.000
20.51841 272.000
20.53513 260.000
20.55184 273.000
20.56855 252.000
20.58526 281.000
20.60197 249.000
20.61868 258.000
20.63539 267.000
20.65210 284.000
20.66882 316.000
20.68553 274.000
20.70224 276.000
20.71895 307.000
20.73566 288.000
20.75237 280.000
20.76908 293.000
20.78579 248.000
20.80251 298.000
20.81922 270.000
20.83593 248.000
20.85264 268.000
20.86935 255.000
20.88606 258.000
20.90277 267.000
20.91948 280.000
20.93620 317.000
20.95291 292.000
20.96962 286.000
20.98633 310.000
21.00304 319.000
21.01975 325.000
21.03646 325.000
21.05317 348.000
21.06989 364.000
21.08660 401.000
21.10331 492.000
21.12002 546.000
21.13673 623.000
21.15344 819.000
21.17015 1122.000
21.18686 1273.000
21.20358 1730.000
21.22029 1973.000
21.23700 2292.000
21.25371 2226.000
21.27042 1700.000
21.28713 1292.000
21.30384 743.000
21.32056 441.000
21.33727 345.000
21.35398 310.000
21.37069 294.000
21.38740 304.000
21.40411 295.000
21.42082 305.000
21.43753 278.000
21.45425 287.000
21.47096 270.000
21.48767 284.000
21.50438 293.000
21.52109 278.000
21.53780 283.000
21.55451 301.000
21.57122 287.000
21.58794 271.000
21.60465 279.000
21.62136 291.000
21.63807 269.000
21.65478 277.000
21.67149 280.000
21.68820 267.000
21.70491 315.000
21.72163 288.000
21.73834 290.000
21.75505 248.000
21.77176 257.000
21.78847 280.000
21.80518 277.000
21.82189 277.000
21.83860 271.000
21.85532 277.000
21.87203 284.000
21.88874 270.000
21.90545 287.000
21.92216 305.000
21.93887 289.000
21.95558 270.000
21.97229 269.000
21.98901 274.000
22.00572 292.000
22.02243 294.000
22.03914 274.000
22.05585 286.000
22.07256 294.000
22.08927 273.000
22.10598 265.000
22.12270 280.000
22.13941 294.000
22.15612 328.000
22.17283 293.000
22.18954 303.000
22.20625 348.000
22.22296 353.000
22.23968 368.000
22.25639 398.000
22.27310 416.000
22.28981 447.000
22.30652 469.000
22.32323 377.000
22.33994 350.000
22.35665 348.000
22.37337 317.000
22.39008 322.000
22.40679 294.000
22.42350 300.000
22.44021 275.000
22.45692 294.000
22.47363 305.000
22.49034 295.000
22.50706 324.000
22.52377 295.000
22.54048 272.000
22.55719 291.000
22.57390 281.000
22.59061 296.000
22.60732 293.000
22.62403 262.000
22.64075 252.000
22.65746 289.000
22.67417 291.000
22.69088 275.000
22.70759 320.000
22.72430 276.000
22.74101 270.000
22.75772 291.000
22.77444 279.000
22.79115 295.000
22.80786 323.000
22.82457 291.000
22.84128 270.000
22.85799 265.000
22.87470 269.000
22.89141 283.000
22.90813 267.000
22.92484 284.000
22.94155 274.000
22.95826 302.000
22.97497 299.000
22.99168 285.000
23.00839 281.000
23.02510 254.000
23.04182 292.000
23.05853 283.000
23.07524 308.000
23.09195 295.000
23.10866 285.000
23.12537 259.000
23.14208 278.000
23.15879 268.000
23.17551 275.000
23.19222 287.000
23.20893 284.000
23.22564 291.000
23.24235 299.000
23.25906 245.000
23.27577 283.000
23.29249 299.000
23.30920 296.000
23.32591 281.000
23.34262 315.000
23.35933 276.000
23.37604 303.000
23.39275 303.000
23.40946 298.000
23.42618 273.000
23.44289 293.000
23.45960 291.000
23.47631 288.000
23.49302 314.000
23.50973 241.000
23.52644 273.000
23.54315 307.000
23.55987 273.000
23.57658 299.000
23.59329 289.000
23.61000 268.000
23.62671 248.000
23.64342 275.000
23.66013 295.000
23.67684 314.000
23.69356 281.000
23.71027 309.000
23.72698 303.000
23.74369 299.000
23.76040 334.000
23.77711 312.000
23.79382 277.000
23.81053 276.000
23.82725 290.000
23.84396 340.000
23.86067 314.000
23.87738 366.000
23.89409 386.000
23.91080 375.000
23.92751 389.000
23.94422 384.000
23.96094 446.000
23.97765 465.000
23.99436 509.000
24.01107 582.000
24.02778 638.000
24.04449 714.000
24.06120 775.000
24.07791 787.000
24.09463 818.000
24.11134 818.000
24.12805 853.000
24.14476 755.000
24.16147 669.000
24.17818 601.000
24.19489 533.000
24.21160 521.000
24.22832 449.000
24.24503 416.000
24.26174 417.000
24.27845 389.000
24.29516 349.000
24.31187 359.000
24.32858 317.000
24.34530 339.000
24.36201 337.000
24.37872 290.000
24.39543 301.000
24.41214 299.000
24.42885 341.000
24.44556 283.000
24.46227 254.000
24.47899 324.000
24.49570 317.000
24.51241 287.000
24.52912 258.000
24.54583 271.000
24.56254 319.000
24.57925 336.000
24.59596 271.000
24.61268 302.000
24.62939 291.000
24.64610 277.000
24.66281 294.000
24.67952 251.000
24.69623 295.000
24.71294 279.000
24.72965 295.000
24.74637 295.000
24.76308 324.000
24.77979 318.000
24.79650 320.000
24.81321 304.000
24.82992 301.000
24.84663 281.000
24.86334 291.000
24.88006 308.000
24.89677 327.000
24.91348 317.000
24.93019 272.000
24.94690 342.000
24.96361 310.000
24.98032 280.000
24.99703 303.000
25.01375 275.000
25.03046 343.000
25.04717 295.000
25.06388 334.000
25.08059 368.000
25.09730 342.000
25.11401 387.000
25.13072 365.000
25.14744 408.000
25.16415 453.000
25.18086 431.000
25.19757 511.000
25.21428 529.000
25.23099 586.000
25.24770 623.000
25.26441 647.000
25.28113 630.000
25.29784 554.000
25.31455 557.000
25.33126 456.000
25.34797 459.000
25.36468 403.000
25.38139 397.000
25.39811 364.000
25.41482 345.000
25.43153 393.000
25.44824 356.000
25.46495 350.000
25.48166 369.000
25.49837 345.000
25.51508 342.000
25.53180 325.000
25.54851 349.000
25.56522 368.000
25.58193 348.000
25.59864 353.000
25.61535 347.000
25.63206 320.000
25.64877 324.000
25.66549 383.000
25.68220 363.000
25.69891 339.000
25.71562 365.000
25.73233 347.000
25.74904 342.000
25.76575 378.000
25.78246 400.000
25.79918 351.000
25.81589 413.000
25.83260 424.000
25.84931 405.000
25.86602 464.000
25.88273 484.000
25.89944 516.000
25.91615 584.000
25.93287 610.000
25.94958 662.000
25.96629 794.000
25.98300 876.000
25.99971 989.000
26.01642 1140.000
26.03313 1336.000
26.04984 1480.000
26.06656 1669.000
26.08327 1940.000
26.09998 2113.000
26.11669 2226.000
26.13340 2079.000
26.15011 1825.000
26.16682 1525.000
26.18353 1202.000
26.20025 961.000
26.21696 882.000
26.23367 738.000
26.25038 656.000
26.26709 583.000
26.28380 514.000
26.30051 526.000
26.31722 467.000
26.33394 452.000
26.35065 425.000
26.36736 416.000
26.38407 408.000
26.40078 351.000
26.41749 362.000
26.43420 356.000
26.45092 350.000
26.46763 352.000
26.48434 324.000
26.50105 343.000
26.51776 340.000
26.53447 356.000
26.55118 350.000
26.56789 318.000
26.58461 318.000
26.60132 334.000
26.61803 317.000
26.63474 272.000
26.65145 322.000
26.66816 312.000
26.68487 312.000
26.70158 319.000
26.71830 312.000
26.73501 301.000
26.75172 317.000
26.76843 322.000
26.78514 277.000
26.80185 326.000
26.81856 276.000
26.83527 294.000
26.85199 310.000
26.86870 273.000
26.88541 311.000
26.90212 300.000
26.91883 302.000
26.93554 281.000
26.95225 311.000
26.96896 311.000
26.98568 340.000
27.00239 312.000
27.01910 299.000
27.03581 262.000
27.05252 312.000
27.06923 320.000
27.08594 283.000
27.10265 277.000
27.11937 292.000
27.13608 325.000
27.15279 299.000
27.16950 244.000
27.18621 309.000
27.20292 311.000
27.21963 286.000
27.23634 308.000
27.25306 285.000
27.26977 284.000
27.28648 289.000
27.30319 281.000
27.31990 300.000
27.33661 322.000
27.35332 310.000
27.37003 275.000
27.38675 285.000
27.40346 323.000
27.42017 317.000
27.43688 284.000
27.45359 293.000
27.47030 293.000
27.48701 301.000
27.50373 314.000
27.52044 306.000
27.53715 299.000
27.55386 300.000
27.57057 299.000
27.58728 295.000
27.60399 341.000
27.62070 385.000
27.63742 377.000
27.65413 326.000
27.67084 333.000
27.68755 367.000
27.70426 395.000
27.72097 417.000
27.73768 472.000
27.75439 561.000
27.77111 640.000
27.78782 727.000
27.80453 826.000
27.82124 1101.000
27.83795 1377.000
27.85466 1795.000
27.87137 2305.000
27.88808 2937.000
27.90480 3726.000
27.92151 4242.000
27.93822 4489.000
27.95493 4320.000
27.97164 3627.000
27.98835 2636.000
28.00506 1806.000
28.02177 1190.000
28.03849 926.000
28.05520 688.000
28.07191 540.000
28.08862 515.000
28.10533 426.000
28.12204 394.000
28.13875 385.000
28.15546 346.000
28.17218 354.000
28.18889 362.000
28.20560 352.000
28.22231 336.000
28.23902 343.000
28.25573 291.000
28.27244 279.000
28.28915 301.000
28.30587 293.000
28.32258 310.000
28.33929 302.000
28.35600 272.000
28.37271 311.000
28.38942 272.000
28.40613 274.000
28.42284 289.000
28.43956 306.000
28.45627 308.000
28.47298 281.000
28.48969 298.000
28.50640 298.000
28.52311 296.000
28.53982 301.000
28.55654 275.000
28.57325 308.000
28.58996 274.000
28.60667 290.000
28.62338 320.000
28.64009 304.000
28.65680 304.000
28.67351 293.000
28.69023 274.000
28.70694 286.000
28.72365 287.000
28.74036 275.000
28.75707 286.000
28.77378 270.000
28.79049 264.000
28.80720 284.000
28.82392 301.000
28.84063 258.000
28.85734 293.000
28.87405 291.000
28.89076 285.000
28.90747 285.000
28.92418 307.000
28.94089 265.000
28.95761 284.000
28.97432 285.000
28.99103 283.000
29.00774 252.000
29.02445 299.000
29.04116 278.000
29.05787 289.000
29.07458 267.000
29.09130 307.000
29.10801 296.000
29.12472 275.000
29.14143 252.000
29.15814 278.000
29.17485 305.000
29.19156 283.000
29.20827 298.000
29.22499 258.000
29.24170 286.000
29.25841 276.000
29.27512 284.000
29.29183 311.000
29.30854 284.000
29.32525 261.000
29.34196 255.000
29.35868 299.000
29.37539 300.000
29.39210 259.000
29.40881 265.000
29.42552 274.000
29.44223 261.000
29.45894 255.000
29.47565 325.000
29.49237 294.000
29.50908 260.000
29.52579 273.000
29.54250 240.000
29.55921 265.000
29.57592 290.000
29.59263 259.000
29.60935 285.000
29.62606 262.000
29.64277 287.000
29.65948 281.000
29.67619 285.000
29.69290 276.000
29.70961 279.000
29.72632 295.000
29.74304 293.000
29.75975 309.000
29.77646 273.000
29.79317 348.000
29.80988 294.000
29.82659 286.000
29.84330 315.000
29.86001 308.000
29.87673 295.000
29.89344 309.000
29.91015 285.000
29.92686 290.000
29.94357 290.000
29.96028 323.000
29.97699 307.000
29.99370 340.000
30.01042 341.000
30.02713 328.000
30.04384 361.000
30.06055 372.000
30.07726 416.000
30.09397 443.000
30.11068 482.000
30.12739 502.000
30.14411 633.000
30.16082 788.000
30.17753 1002.000
30.19424 1272.000
30.21095 1808.000
30.22766 2660.000
30.24437 3639.000
30.26108 4719.000
30.27780 5415.000
30.29451 5121.000
30.31122 3816.000
30.32793 2393.000
30.34464 1611.000
30.36135 1287.000
30.37806 1207.000
30.39477 1359.000
30.41149 1344.000
30.42820 1299.000
30.44491 1152.000
30.46162 1012.000
30.47833 780.000
30.49504 713.000
30.51175 633.000
30.52846 620.000
30.54518 598.000
30.56189 468.000
30.57860 480.000
30.59531 434.000
30.61202 399.000
30.62873 422.000
30.64544 404.000
30.66216 400.000
30.67887 352.000
30.69558 333.000
30.71229 320.000
30.72900 342.000
30.74571 340.000
30.76242 365.000
30.77913 320.000
30.79585 345.000
30.81256 307.000
30.82927 340.000
30.84598 298.000
30.86269 339.000
30.87940 315.000
30.89611 324.000
30.91282 330.000
30.92954 349.000
30.94625 342.000
30.96296 392.000
30.97967 328.000
30.99638 369.000
31.01309 401.000
31.02980 377.000
31.04651 380.000
31.06323 426.000
31.07994 440.000
31.09665 509.000
31.11336 531.000
31.13007 618.000
31.14678 698.000
31.16349 802.000
31.18020 891.000
31.19692 1105.000
31.21363 1254.000
31.23034 1588.000
31.24705 1767.000
31.26376 2200.000
31.28047 2607.000
31.29718 2831.000
31.31389 3347.000
31.33061 3398.000
31.34732 3437.000
31.36403 3297.000
31.38074 3002.000
31.39745 2418.000
31.41416 1945.000
31.43087 1564.000
31.44758 1201.000
31.46430 1028.000
31.48101 853.000
31.49772 678.000
31.51443 539.000
31.53114 542.000
31.54785 492.000
31.56456 442.000
31.58127 420.000
31.59799 372.000
31.61470 372.000
31.63141 332.000
31.64812 339.000
31.66483 320.000
31.68154 303.000
31.69825 302.000
31.71497 300.000
31.73168 310.000
31.74839 295.000
31.76510 256.000
31.78181 302.000
31.79852 275.000
31.81523 289.000
31.83194 281.000
31.84866 272.000
31.86537 269.000
31.88208 306.000
31.89879 274.000
31.91550 305.000
31.93221 239.000
31.94892 275.000
31.96563 295.000
31.98235 306.000
31.99906 267.000
32.01577 301.000
32.03248 259.000
32.04919 263.000
32.06590 263.000
32.08261 271.000
32.09932 252.000
32.11604 262.000
32.13275 279.000
32.14946 291.000
32.16617 287.000
32.18288 303.000
32.19959 294.000
32.21630 277.000
32.23301 288.000
32.24973 308.000
32.26644 303.000
32.28315 283.000
32.29986 275.000
32.31657 314.000
32.33328 310.000
32.34999 296.000
32.36670 320.000
32.38342 315.000
32.40013 335.000
32.41684 353.000
32.43355 362.000
32.45026 349.000
32.46697 352.000
32.48368 425.000
32.50039 448.000
32.51711 439.000
32.53382 512.000
32.55053 510.000
32.56724 551.000
32.58395 603.000
32.60066 714.000
32.61737 753.000
32.63408 881.000
32.65080 1019.000
32.66751 1072.000
32.68422 1247.000
32.70093 1293.000
32.71764 1346.000
32.73435 1274.000
32.75106 1134.000
32.76778 945.000
32.78449 780.000
32.80120 694.000
32.81791 597.000
32.83462 545.000
32.85133 541.000
32.86804 492.000
32.88475 421.000
32.90147 393.000
32.91818 405.000
32.93489 374.000
32.95160 358.000
32.96831 341.000
32.98502 350.000
33.00173 307.000
33.01844 317.000
33.03516 283.000
33.05187 319.000
33.06858 308.000
33.08529 302.000
33.10200 285.000
33.11871 260.000
33.13542 298.000
33.15213 306.000
33.16885 260.000
33.18556 262.000
33.20227 308.000
33.21898 272.000
33.23569 251.000
33.25240 275.000
33.26911 291.000
33.28582 327.000
33.30254 341.000
33.31925 292.000
33.33596 325.000
33.35267 342.000
33.36938 320.000
33.38609 334.000
33.40280 342.000
33.41951 337.000
33.43623 317.000
33.45294 265.000
33.46965 280.000
33.48636 244.000
33.50307 257.000
33.51978 255.000
33.53649 237.000
33.55320 240.000
33.56992 242.000
33.58663 243.000
33.60334 229.000
33.62005 223.000
33.63676 268.000
33.65347 244.000
33.67018 264.000
33.68689 223.000
33.70361 242.000
33.72032 223.000
33.73703 209.000
33.75374 210.000
33.77045 225.000
33.78716 253.000
33.80387 244.000
33.82059 272.000
33.83730 244.000
33.85401 181.000
33.87072 226.000
33.88743 240.000
33.90414 238.000
33.92085 226.000
33.93756 249.000
33.95428 223.000
33.97099 202.000
33.98770 222.000
34.00441 227.000
34.02112 206.000
34.03783 205.000
34.05454 245.000
34.07125 223.000
34.08797 242.000
34.10468 227.000
34.12139 256.000
34.13810 251.000
34.15481 210.000
34.17152 257.000
34.18823 232.000
34.20494 237.000
34.22166 260.000
34.23837 284.000
34.25508 238.000
34.27179 291.000
34.28850 283.000
34.30521 284.000
34.32192 368.000
34.33863 335.000
34.35535 374.000
34.37206 415.000
34.38877 440.000
34.40548 424.000
34.42219 466.000
34.43890 474.000
34.45561 411.000
34.47232 367.000
34.48904 372.000
34.50575 328.000
34.52246 341.000
34.53917 311.000
34.55588 252.000
34.57259 283.000
34.58930 274.000
34.60601 274.000
34.62273 274.000
34.63944 244.000
34.65615 236.000
34.67286 227.000
34.68957 222.000
34.70628 194.000
34.72299 211.000
34.73970 209.000
34.75642 214.000
34.77313 207.000
34.78984 231.000
34.80655 213.000
34.82326 253.000
34.83997 233.000
34.85668 222.000
34.87340 212.000
34.89011 214.000
34.90682 218.000
34.92353 229.000
34.94024 210.000
34.95695 208.000
34.97366 205.000
34.99037 222.000
35.00709 187.000
35.02380 192.000
35.04051 218.000
35.05722 238.000
35.07393 214.000
35.09064 226.000
35.10735 210.000
35.12406 183.000
35.14078 208.000
35.15749 196.000
35.17420 208.000
35.19091 236.000
35.20762 193.000
35.22433 183.000
35.24104 212.000
35.25775 216.000
35.27447 223.000
35.29118 171.000
35.30789 225.000
35.32460 183.000
35.34131 210.000
35.35802 222.000
35.37473 202.000
35.39144 193.000
35.40816 193.000
35.42487 190.000
35.44158 211.000
35.45829 216.000
35.47500 213.000
35.49171 225.000
35.50842 221.000
35.52513 197.000
35.54185 196.000
35.55856 179.000
35.57527 212.000
35.59198 214.000
35.60869 212.000
35.62540 243.000
35.64211 220.000
35.65882 251.000
35.67554 245.000
35.69225 287.000
35.70896 278.000
35.72567 284.000
35.74238 283.000
35.75909 242.000
35.77580 248.000
35.79251 242.000
35.80923 246.000
35.82594 239.000
35.84265 299.000
35.85936 268.000
35.87607 286.000
35.89278 290.000
35.90949 291.000
35.92621 265.000
35.94292 247.000
35.95963 238.000
35.97634 263.000
35.99305 223.000
36.00976 208.000
36.02647 206.000
36.04318 206.000
36.05990 207.000
36.07661 223.000
36.09332 179.000
36.11003 196.000
36.12674 208.000
36.14345 205.000
36.16016 174.000
36.17687 209.000
36.19359 187.000
36.21030 195.000
36.22701 200.000
36.24372 210.000
36.26043 209.000
36.27714 169.000
36.29385 175.000
36.31056 207.000
36.32728 205.000
36.34399 199.000
36.36070 196.000
36.37741 194.000
36.39412 179.000
36.41083 194.000
36.42754 191.000
36.44425 192.000
36.46097 187.000
36.47768 189.000
36.49439 175.000
36.51110 192.000
36.52781 169.000
36.54452 170.000
36.56123 184.000
36.57794 198.000
36.59466 212.000
36.61137 179.000
36.62808 165.000
36.64479 170.000
36.66150 166.000
36.67821 193.000
36.69492 214.000
36.71163 187.000
36.72835 199.000
36.74506 177.000
36.76177 184.000
36.77848 190.000
36.79519 166.000
36.81190 180.000
36.82861 201.000
36.84532 185.000
36.86204 180.000
36.87875 166.000
36.89546 204.000
36.91217 196.000
36.92888 184.000
36.94559 210.000
36.96230 204.000
36.97902 187.000
36.99573 197.000
37.01244 204.000
37.02915 179.000
37.04586 210.000
37.06257 209.000
37.07928 176.000
37.09599 215.000
37.11271 230.000
37.12942 202.000
37.14613 202.000
37.16284 226.000
37.17955 226.000
37.19626 206.000
37.21297 314.000
37.22968 336.000
37.24640 482.000
37.26311 578.000
37.27982 790.000
37.29653 1174.000
37.31324 1761.000
37.32995 2215.000
37.34666 2534.000
37.36337 2182.000
37.38009 1514.000
37.39680 840.000
37.41351 487.000
37.43022 302.000
37.44693 280.000
37.46364 222.000
37.48035 225.000
37.49706 218.000
37.51378 213.000
37.53049 193.000
37.54720 223.000
37.56391 209.000
37.58062 205.000
37.59733 192.000
37.61404 197.000
37.63075 218.000
37.64747 177.000
37.66418 177.000
37.68089 160.000
37.69760 197.000
37.71431 185.000
37.73102 185.000
37.74773 186.000
37.76444 204.000
37.78116 183.000
37.79787 204.000
37.81458 176.000
37.83129 180.000
37.84800 193.000
37.86471 190.000
37.88142 177.000
37.89813 176.000
37.91485 177.000
37.93156 189.000
37.94827 199.000
37.96498 176.000
37.98169 195.000
37.99840 190.000
38.01511 198.000
38.03183 201.000
38.04854 193.000
38.06525 214.000
38.08196 185.000
38.09867 199.000
38.11538 202.000
38.13209 212.000
38.14880 195.000
38.16552 175.000
38.18223 189.000
38.19894 204.000
38.21565 197.000
38.23236 194.000
38.24907 194.000
38.26578 189.000
38.28249 190.000
38.29921 180.000
38.31592 198.000
38.33263 207.000
38.34934 186.000
38.36605 185.000
38.38276 181.000
38.39947 181.000
38.41618 184.000
38.43290 181.000
38.44961 184.000
38.46632 182.000
38.48303 209.000
38.49974 178.000
38.51645 200.000
38.53316 234.000
38.54987 186.000
38.56659 217.000
38.58330 189.000
38.60001 209.000
38.61672 198.000
38.63343 182.000
38.65014 187.000
38.66685 206.000
38.68356 196.000
38.70028 241.000
38.71699 236.000
38.73370 207.000
38.75041 242.000
38.76712 267.000
38.78383 252.000
38.80054 262.000
38.81725 304.000
38.83397 298.000
38.85068 303.000
38.86739 327.000
38.88410 325.000
38.90081 319.000
38.91752 314.000
38.93423 288.000
38.95095 272.000
38.96766 265.000
38.98437 194.000
39.00108 225.000
39.01779 240.000
39.03450 206.000
39.05121 210.000
39.06792 221.000
39.08464 213.000
39.10135 236.000
39.11806 206.000
39.13477 213.000
39.15148 217.000
39.16819 206.000
39.18490 212.000
39.20161 216.000
39.21833 178.000
39.23504 210.000
39.25175 220.000
39.26846 197.000
39.28517 229.000
39.30188 186.000
39.31859 171.000
39.33530 222.000
39.35202 205.000
39.36873 211.000
39.38544 191.000
39.40215 226.000
39.41886 201.000
39.43557 202.000
39.45228 222.000
39.46899 195.000
39.48571 224.000
39.50242 205.000
39.51913 210.000
39.53584 214.000
39.55255 232.000
39.56926 246.000
39.58597 222.000
39.60268 225.000
39.61940 252.000
39.63611 253.000
39.65282 279.000
39.66953 307.000
39.68624 293.000
39.70295 306.000
39.71966 322.000
39.73637 361.000
39.75309 387.000
39.76980 434.000
39.78651 457.000
39.80322 540.000
39.81993 545.000
39.83664 632.000
39.85335 769.000
39.87006 948.000
39.88678 990.000
39.90349 1038.000
39.92020 1220.000
39.93691 1320.000
39.95362 1416.000
39.97033 1430.000
39.98704 1451.000
40.00376 1439.000
40.02047 1279.000
40.03718 1203.000
40.05389 1129.000
40.07060 984.000
40.08731 892.000
40.10402 762.000
40.12073 674.000
40.13745 613.000
40.15416 543.000
40.17087 472.000
40.18758 432.000
40.20429 399.000
40.22100 380.000
40.23771 331.000
40.25442 299.000
40.27114 289.000
40.28785 288.000
40.30456 286.000
40.32127 261.000
40.33798 246.000
40.35469 257.000
40.37140 246.000
40.38811 237.000
40.40483 225.000
40.42154 206.000
40.43825 246.000
40.45496 218.000
40.47167 229.000
40.48838 232.000
40.50509 199.000
40.52180 220.000
40.53852 216.000
40.55523 262.000
40.57194 180.000
40.58865 195.000
40.60536 194.000
40.62207 194.000
40.63878 218.000
40.65549 191.000
40.67221 218.000
40.68892 201.000
40.70563 246.000
40.72234 253.000
40.73905 217.000
40.75576 216.000
40.77247 217.000
40.78918 217.000
40.80590 198.000
40.82261 194.000
40.83932 216.000
40.85603 214.000
40.87274 245.000
40.88945 209.000
40.90616 229.000
40.92287 194.000
40.93959 215.000
40.95630 198.000
40.97301 212.000
40.98972 199.000
41.00643 213.000
41.02314 202.000
41.03985 236.000
41.05657 210.000
41.07328 249.000
41.08999 227.000
41.10670 258.000
41.12341 226.000
41.14012 205.000
41.15683 246.000
41.17354 217.000
41.19026 251.000
41.20697 265.000
41.22368 258.000
41.24039 238.000
41.25710 256.000
41.27381 269.000
41.29052 265.000
41.30723 303.000
41.32395 321.000
41.34066 349.000
41.35737 353.000
41.37408 356.000
41.39079 458.000
41.40750 502.000
41.42421 592.000
41.44092 653.000
41.45764 754.000
41.47435 878.000
41.49106 1009.000
41.50777 1109.000
41.52448 1069.000
41.54119 961.000
41.55790 791.000
41.57461 656.000
41.59133 652.000
41.60804 601.000
41.62475 609.000
41.64146 646.000
41.65817 640.000
41.67488 589.000
41.69159 518.000
41.70830 460.000
41.72502 422.000
41.74173 394.000
41.75844 318.000
41.77515 324.000
41.79186 288.000
41.80857 312.000
41.82528 314.000
41.84199 310.000
41.85871 280.000
41.87542 271.000
41.89213 324.000
41.90884 293.000
41.92555 281.000
41.94226 262.000
41.95897 245.000
41.97568 284.000
41.99240 239.000
42.00911 279.000
42.02582 277.000
42.04253 252.000
42.05924 253.000
42.07595 269.000
42.09266 259.000
42.10938 287.000
42.12609 273.000
42.14280 261.000
42.15951 307.000
42.17622 286.000
42.19293 276.000
42.20964 302.000
42.22635 310.000
42.24307 287.000
42.25978 345.000
42.27649 342.000
42.29320 357.000
42.30991 409.000
42.32662 416.000
42.34333 437.000
42.36004 483.000
42.37676 555.000
42.39347 609.000
42.41018 680.000
42.42689 761.000
42.44360 866.000
42.46031 931.000
42.47702 998.000
42.49373 1174.000
42.51045 1234.000
42.52716 1295.000
42.54387 1304.000
42.56058 1267.000
42.57729 1250.000
42.59400 1077.000
42.61071 989.000
42.62742 883.000
42.64414 764.000
42.66085 664.000
42.67756 578.000
42.69427 583.000
42.71098 484.000
42.72769 418.000
42.74440 394.000
42.76111 378.000
42.77783 359.000
42.79454 343.000
42.81125 323.000
42.82796 296.000
42.84467 275.000
42.86138 307.000
42.87809 300.000
42.89480 253.000
42.91152 271.000
42.92823 273.000
42.94494 265.000
42.96165 255.000
42.97836 269.000
42.99507 222.000
43.01178 276.000
43.02849 248.000
43.04521 260.000
43.06192 262.000
43.07863 267.000
43.09534 253.000
43.11205 226.000
43.12876 258.000
43.14547 245.000
43.16219 283.000
43.17890 274.000
43.19561 306.000
43.21232 338.000
43.22903 341.000
43.24574 397.000
43.26245 473.000
43.27916 486.000
43.29588 555.000
43.31259 544.000
43.32930 543.000
43.34601 662.000
43.36272 735.000
43.37943 1059.000
43.39614 1476.000
43.41285 1769.000
43.42957 1747.000
43.44628 1189.000
43.46299 701.000
43.47970 374.000
43.49641 276.000
43.51312 248.000
43.52983 263.000
43.54654 218.000
43.56326 223.000
43.57997 214.000
43.59668 226.000
43.61339 213.000
43.63010 215.000
43.64681 201.000
43.66352 213.000
43.68023 213.000
43.69695 206.000
43.71366 213.000
43.73037 197.000
43.74708 178.000
43.76379 199.000
43.78050 187.000
43.79721 200.000
43.81392 194.000
43.83064 189.000
43.84735 208.000
43.86406 215.000
43.88077 177.000
43.89748 173.000
43.91419 184.000
43.93090 187.000
43.94761 200.000
43.96433 192.000
43.98104 198.000
43.99775 196.000
44.01446 197.000
44.03117 220.000
44.04788 184.000
44.06459 232.000
44.08130 192.000
44.09802 197.000
44.11473 205.000
44.13144 194.000
44.14815 193.000
44.16486 187.000
44.18157 192.000
44.19828 177.000
44.21500 198.000
44.23171 174.000
44.24842 175.000
44.26513 197.000
44.28184 183.000
44.29855 189.000
44.31526 201.000
44.33197 208.000
44.34869 208.000
44.36540 189.000
44.38211 209.000
44.39882 169.000
44.41553 212.000
44.43224 200.000
44.44895 192.000
44.46566 194.000
44.48238 186.000
44.49909 167.000
44.51580 194.000
44.53251 192.000
44.54922 185.000
44.56593 189.000
44.58264 179.000
44.59935 186.000
44.61607 187.000
44.63278 190.000
44.64949 180.000
44.66620 226.000
44.68291 212.000
44.69962 202.000
44.71633 189.000
44.73304 218.000
44.74976 223.000
44.76647 247.000
44.78318 243.000
44.79989 229.000
44.81660 269.000
44.83331 299.000
44.85002 284.000
44.86673 314.000
44.88345 265.000
44.90016 259.000
44.91687 270.000
44.93358 251.000
44.95029 268.000
44.96700 246.000
44.98371 200.000
45.00042 233.000
45.01714 220.000
45.03385 239.000
45.05056 205.000
45.06727 198.000
45.08398 199.000
45.10069 187.000
45.11740 194.000
45.13411 168.000
45.15083 173.000
45.16754 181.000
45.18425 173.000
45.20096 206.000
45.21767 195.000
45.23438 201.000
45.25109 179.000
45.26781 196.000
45.28452 195.000
45.30123 195.000
45.31794 162.000
45.33465 186.000
45.35136 200.000
45.36807 183.000
45.38478 198.000
45.40150 183.000
45.41821 206.000
45.43492 187.000
45.45163 208.000
45.46834 189.000
45.48505 194.000
45.50176 201.000
45.51847 227.000
45.53519 201.000
45.55190 255.000
45.56861 261.000
45.58532 257.000
45.60203 281.000
45.61874 318.000
45.63545 341.000
45.65216 353.000
45.66888 309.000
45.68559 290.000
45.70230 257.000
45.71901 251.000
45.73572 244.000
45.75243 237.000
45.76914 205.000
45.78585 213.000
45.80257 200.000
45.81928 199.000
45.83599 225.000
45.85270 183.000
45.86941 213.000
45.88612 222.000
45.90283 177.000
45.91954 187.000
45.93626 177.000
45.95297 192.000
45.96968 187.000
45.98639 186.000
46.00310 184.000
46.01981 212.000
46.03652 198.000
46.05323 202.000
46.06995 166.000
46.08666 198.000
46.10337 193.000
46.12008 208.000
46.13679 184.000
46.15350 181.000
46.17021 201.000
46.18692 173.000
46.20364 208.000
46.22035 167.000
46.23706 193.000
46.25377 199.000
46.27048 170.000
46.28719 200.000
46.30390 182.000
46.32062 176.000
46.33733 177.000
46.35404 164.000
46.37075 184.000
46.38746 194.000
46.40417 179.000
46.42088 179.000
46.43759 214.000
46.45431 196.000
46.47102 190.000
46.48773 183.000
46.50444 181.000
46.52115 212.000
46.53786 196.000
46.55457 197.000
46.57128 192.000
46.58800 175.000
46.60471 194.000
46.62142 215.000
46.63813 192.000
46.65484 191.000
46.67155 226.000
46.68826 190.000
46.70497 165.000
46.72169 202.000
46.73840 202.000
46.75511 204.000
46.77182 215.000
46.78853 212.000
46.80524 178.000
46.82195 229.000
46.83866 223.000
46.85538 207.000
46.87209 218.000
46.88880 212.000
46.90551 206.000
46.92222 192.000
46.93893 190.000
46.95564 194.000
46.97235 201.000
46.98907 191.000
47.00578 220.000
47.02249 151.000
47.03920 195.000
47.05591 208.000
47.07262 209.000
47.08933 222.000
47.10604 221.000
47.12276 236.000
47.13947 228.000
47.15618 199.000
47.17289 256.000
47.18960 279.000
47.20631 245.000
47.22302 298.000
47.23973 336.000
47.25645 337.000
47.27316 358.000
47.28987 364.000
47.30658 401.000
47.32329 354.000
47.34000 327.000
47.35671 308.000
47.37343 258.000
47.39014 246.000
47.40685 277.000
47.42356 270.000
47.44027 223.000
47.45698 210.000
47.47369 228.000
47.49040 223.000
47.50712 218.000
47.52383 215.000
47.54054 220.000
47.55725 206.000
47.57396 202.000
47.59067 195.000
47.60738 226.000
47.62409 221.000
47.64081 223.000
47.65752 216.000
47.67423 220.000
47.69094 231.000
47.70765 212.000
47.72436 217.000
47.74107 198.000
47.75778 212.000
47.77450 171.000
47.79121 215.000
47.80792 189.000
47.82463 192.000
47.84134 195.000
47.85805 174.000
47.87476 187.000
47.89147 178.000
47.90819 187.000
47.92490 187.000
47.94161 182.000
47.95832 170.000
47.97503 192.000
47.99174 185.000
48.00845 185.000
48.02516 164.000
48.04188 190.000
48.05859 162.000
48.07530 221.000
48.09201 163.000
48.10872 168.000
48.12543 178.000
48.14214 158.000
48.15885 182.000
48.17557 175.000
48.19228 189.000
48.20899 175.000
48.22570 169.000
48.24241 190.000
48.25912 183.000
48.27583 184.000
48.29254 168.000
48.30926 169.000
48.32597 189.000
48.34268 190.000
48.35939 180.000
48.37610 182.000
48.39281 175.000
48.40952 183.000
48.42624 153.000
48.44295 180.000
48.45966 165.000
48.47637 178.000
48.49308 162.000
48.50979 163.000
48.52650 186.000
48.54321 178.000
48.55993 191.000
48.57664 200.000
48.59335 182.000
48.61006 179.000
48.62677 208.000
48.64348 182.000
48.66019 202.000
48.67690 211.000
48.69362 195.000
48.71033 209.000
48.72704 244.000
48.74375 236.000
48.76046 317.000
48.77717 411.000
48.79388 607.000
48.81059 891.000
48.82731 1412.000
48.84402 2160.000
48.86073 2982.000
48.87744 3241.000
48.89415 2551.000
48.91086 1571.000
48.92757 884.000
48.94428 494.000
48.96100 303.000
48.97771 289.000
48.99442 246.000
49.01113 241.000
49.02784 241.000
49.04455 243.000
49.06126 214.000
49.07797 201.000
49.09469 231.000
49.11140 229.000
49.12811 208.000
49.14482 212.000
49.16153 200.000
49.17824 233.000
49.19495 249.000
49.21166 216.000
49.22838 248.000
49.24509 279.000
49.26180 328.000
49.27851 293.000
49.29522 317.000
49.31193 307.000
49.32864 308.000
49.34535 309.000
49.36207 291.000
49.37878 348.000
49.39549 322.000
49.41220 346.000
49.42891 380.000
49.44562 358.000
49.46233 403.000
49.47905 436.000
49.49576 440.000
49.51247 468.000
49.52918 457.000
49.54589 513.000
49.56260 452.000
49.57931 492.000
49.59602 465.000
49.61274 421.000
49.62945 444.000
49.64616 411.000
49.66287 384.000
49.67958 377.000
49.69629 382.000
49.71300 406.000
49.72971 404.000
49.74643 416.000
49.76314 441.000
49.77985 377.000
49.79656 374.000
49.81327 326.000
49.82998 293.000
49.84669 291.000
49.86340 263.000
49.88012 251.000
49.89683 271.000
49.91354 238.000
49.93025 216.000
49.94696 210.000
49.96367 204.000
49.98038 228.000
49.99709 228.000
50.01381 212.000
50.03052 181.000
50.04723 183.000
50.06394 214.000
50.08065 197.000
50.09736 195.000
50.11407 212.000
50.13078 196.000
50.14750 184.000
50.16421 166.000
50.18092 191.000
50.19763 181.000
50.21434 166.000
50.23105 180.000
50.24776 186.000
50.26447 174.000
50.28119 205.000
50.29790 178.000
50.31461 161.000
50.33132 194.000
50.34803 157.000
50.36474 202.000
50.38145 170.000
50.39816 190.000
50.41488 185.000
50.43159 175.000
50.44830 179.000
50.46501 174.000
50.48172 187.000
50.49843 176.000
50.51514 201.000
50.53186 196.000
50.54857 187.000
50.56528 191.000
50.58199 155.000
50.59870 176.000
50.61541 187.000
50.63212 173.000
50.64883 187.000
50.66555 171.000
50.68226 179.000
50.69897 177.000
50.71568 171.000
50.73239 165.000
50.74910 170.000
50.76581 161.000
50.78252 192.000
50.79924 162.000
50.81595 196.000
50.83266 154.000
50.84937 158.000
50.86608 168.000
50.88279 168.000
50.89950 161.000
50.91621 168.000
50.93293 149.000
50.94964 182.000
50.96635 180.000
50.98306 169.000
50.99977 165.000
51.01648 158.000
51.03319 190.000
51.04990 185.000
51.06662 154.000
51.08333 190.000
51.10004 164.000
51.11675 193.000
51.13346 169.000
51.15017 195.000
51.16688 196.000
51.18359 165.000
51.20031 146.000
51.21702 144.000
51.23373 186.000
51.25044 194.000
51.26715 181.000
51.28386 154.000
51.30057 176.000
51.31728 170.000
51.33400 199.000
51.35071 201.000
51.36742 174.000
51.38413 179.000
51.40084 176.000
51.41755 175.000
51.43426 241.000
51.45097 184.000
51.46769 197.000
51.48440 191.000
51.50111 233.000
51.51782 241.000
51.53453 234.000
51.55124 247.000
51.56795 285.000
51.58467 269.000
51.60138 278.000
51.61809 308.000
51.63480 318.000
51.65151 316.000
51.66822 363.000
51.68493 370.000
51.70164 399.000
51.71836 365.000
51.73507 363.000
51.75178 349.000
51.76849 345.000
51.78520 345.000
51.80191 314.000
51.81862 288.000
51.83533 251.000
51.85205 254.000
51.86876 268.000
51.88547 270.000
51.90218 212.000
51.91889 225.000
51.93560 195.000
51.95231 209.000
51.96902 213.000
51.98574 204.000
52.00245 178.000
52.01916 206.000
52.03587 187.000
52.05258 191.000
52.06929 246.000
52.08600 196.000
52.10271 191.000
52.11943 159.000
52.13614 163.000
52.15285 169.000
52.16956 184.000
52.18627 164.000
52.20298 163.000
52.21969 180.000
52.23640 182.000
52.25312 162.000
52.26983 167.000
52.28654 196.000
52.30325 176.000
52.31996 162.000
52.33667 174.000
52.35338 178.000
52.37009 194.000
52.38681 174.000
52.40352 159.000
52.42023 166.000
52.43694 186.000
52.45365 189.000
52.47036 193.000
52.48707 146.000
52.50378 185.000
52.52050 171.000
52.53721 191.000
52.55392 140.000
52.57063 175.000
52.58734 153.000
52.60405 181.000
52.62076 196.000
52.63748 168.000
52.65419 195.000
52.67090 183.000
52.68761 168.000
52.70432 163.000
52.72103 185.000
52.73774 167.000
52.75445 167.000
52.77117 178.000
52.78788 178.000
52.80459 187.000
52.82130 190.000
52.83801 168.000
52.85472 170.000
52.87143 206.000
52.88814 225.000
52.90486 221.000
52.92157 198.000
52.93828 202.000
52.95499 223.000
52.97170 258.000
52.98841 283.000
53.00512 247.000
53.02183 217.000
53.03855 253.000
53.05526 236.000
53.07197 193.000
53.08868 191.000
53.10539 177.000
53.12210 190.000
53.13881 192.000
53.15552 194.000
53.17224 168.000
53.18895 165.000
53.20566 166.000
53.22237 195.000
53.23908 167.000
53.25579 194.000
53.27250 166.000
53.28921 198.000
53.30593 184.000
53.32264 196.000
53.33935 164.000
53.35606 184.000
53.37277 180.000
53.38948 200.000
53.40619 190.000
53.42290 196.000
53.43962 175.000
53.45633 206.000
53.47304 197.000
53.48975 182.000
53.50646 198.000
53.52317 186.000
53.53988 186.000
53.55659 231.000
53.57331 220.000
53.59002 226.000
53.60673 208.000
53.62344 221.000
53.64015 237.000
53.65686 238.000
53.67357 242.000
53.69029 256.000
53.70700 238.000
53.72371 263.000
53.74042 258.000
53.75713 293.000
53.77384 333.000
53.79055 362.000
53.80726 388.000
53.82398 503.000
53.84069 665.000
53.85740 898.000
53.87411 1261.000
53.89082 1665.000
53.90753 1988.000
53.92424 1744.000
53.94095 1180.000
53.95767 661.000
53.97438 465.000
53.99109 340.000
54.00780 258.000
54.02451 256.000
54.04122 232.000
54.05793 230.000
54.07464 238.000
54.09136 212.000
54.10807 211.000
54.12478 211.000
54.14149 200.000
54.15820 229.000
54.17491 198.000
54.19162 220.000
54.20833 205.000
54.22505 202.000
54.24176 167.000
54.25847 169.000
54.27518 180.000
54.29189 189.000
54.30860 215.000
54.32531 257.000
54.34202 218.000
54.35874 190.000
54.37545 176.000
54.39216 162.000
54.40887 198.000
54.42558 192.000
54.44229 168.000
54.45900 174.000
54.47571 193.000
54.49243 166.000
54.50914 180.000
54.52585 196.000
54.54256 198.000
54.55927 165.000
54.57598 163.000
54.59269 175.000
54.60940 154.000
54.62612 168.000
54.64283 161.000
54.65954 202.000
54.67625 195.000
54.69296 180.000
54.70967 166.000
54.72638 180.000
54.74310 161.000
54.75981 179.000
54.77652 176.000
54.79323 168.000
54.80994 180.000
54.82665 159.000
54.84336 169.000
54.86007 165.000
54.87679 167.000
54.89350 161.000
54.91021 170.000
54.92692 198.000
54.94363 169.000
54.96034 168.000
54.97705 174.000
54.99376 200.000
55.01048 167.000
55.02719 175.000
55.04390 193.000
55.06061 171.000
55.07732 174.000
55.09403 169.000
55.11074 155.000
55.12745 164.000
55.14417 162.000
55.16088 154.000
55.17759 171.000
55.19430 159.000
55.21101 185.000
55.22772 162.000
55.24443 169.000
55.26114 154.000
55.27786 170.000
55.29457 174.000
55.31128 171.000
55.32799 159.000
55.34470 160.000
55.36141 184.000
55.37812 196.000
55.39483 149.000
55.41155 165.000
55.42826 161.000
55.44497 182.000
55.46168 180.000
55.47839 147.000
55.49510 150.000
55.51181 161.000
55.52852 183.000
55.54524 166.000
55.56195 168.000
55.57866 197.000
55.59537 169.000
55.61208 183.000
55.62879 173.000
55.64550 155.000
55.66222 178.000
55.67893 166.000
55.69564 189.000
55.71235 165.000
55.72906 181.000
55.74577 176.000
55.76248 178.000
55.77919 196.000
55.79591 184.000
55.81262 174.000
55.82933 185.000
55.84604 197.000
55.86275 169.000
55.87946 199.000
55.89617 189.000
55.91288 199.000
55.92960 174.000
55.94631 184.000
55.96302 193.000
55.97973 200.000
55.99644 213.000
56.01315 186.000
56.02986 210.000
56.04657 183.000
56.06329 233.000
56.08000 197.000
56.09671 227.000
56.11342 225.000
56.13013 198.000
56.14684 192.000
56.16355 190.000
56.18026 196.000
56.19698 173.000
56.21369 193.000
56.23040 182.000
56.24711 183.000
56.26382 190.000
56.28053 216.000
56.29724 190.000
56.31395 215.000
56.33067 209.000
56.34738 220.000
56.36409 225.000
56.38080 227.000
56.39751 229.000
56.41422 215.000
56.43093 247.000
56.44764 260.000
56.46436 254.000
56.48107 271.000
56.49778 270.000
56.51449 288.000
56.53120 289.000
56.54791 216.000
56.56462 226.000
56.58133 237.000
56.59805 254.000
56.61476 186.000
56.63147 201.000
56.64818 191.000
56.66489 181.000
56.68160 207.000
56.69831 187.000
56.71503 189.000
56.73174 189.000
56.74845 210.000
56.76516 166.000
56.78187 195.000
56.79858 186.000
56.81529 180.000
56.83200 200.000
56.84872 198.000
56.86543 182.000
56.88214 210.000
56.89885 173.000
56.91556 187.000
56.93227 171.000
56.94898 192.000
56.96569 159.000
56.98241 181.000
56.99912 159.000
57.01583 195.000
57.03254 187.000
57.04925 174.000
57.06596 185.000
57.08267 177.000
57.09938 197.000
57.11610 183.000
57.13281 183.000
57.14952 181.000
57.16623 200.000
57.18294 153.000
57.19965 171.000
57.21636 159.000
57.23307 169.000
57.24979 195.000
57.26650 185.000
57.28321 173.000
57.29992 191.000
57.31663 193.000
57.33334 165.000
57.35005 201.000
57.36676 193.000
57.38348 170.000
57.40019 197.000
57.41690 184.000
57.43361 173.000
57.45032 187.000
57.46703 194.000
57.48374 194.000
57.50045 171.000
57.51717 196.000
57.53388 182.000
57.55059 183.000
57.56730 166.000
57.58401 179.000
57.60072 194.000
57.61743 194.000
57.63414 186.000
57.65086 193.000
57.66757 202.000
57.68428 197.000
57.70099 189.000
57.71770 197.000
57.73441 249.000
57.75112 238.000
57.76784 218.000
57.78455 260.000
57.80126 302.000
57.81797 276.000
57.83468 317.000
57.85139 337.000
57.86810 361.000
57.88481 383.000
57.90153 422.000
57.91824 401.000
57.93495 326.000
57.95166 284.000
57.96837 285.000
57.98508 230.000
58.00179 239.000
58.01850 232.000
58.03522 234.000
58.05193 204.000
58.06864 226.000
58.08535 214.000
58.10206 198.000
58.11877 194.000
58.13548 189.000
58.15219 207.000
58.16891 208.000
58.18562 226.000
58.20233 205.000
58.21904 224.000
58.23575 220.000
58.25246 223.000
58.26917 213.000
58.28588 228.000
58.30260 196.000
58.31931 225.000
58.33602 206.000
58.35273 216.000
58.36944 182.000
58.38615 209.000
58.40286 168.000
58.41957 198.000
58.43629 201.000
58.45300 207.000
58.46971 216.000
58.48642 177.000
58.50313 211.000
58.51984 229.000
58.53655 223.000
58.55326 176.000
58.56998 197.000
58.58669 177.000
58.60340 204.000
58.62011 192.000
58.63682 189.000
58.65353 221.000
58.67024 183.000
58.68695 187.000
58.70367 190.000
58.72038 193.000
58.73709 185.000
58.75380 157.000
58.77051 189.000
58.78722 199.000
58.80393 174.000
58.82065 226.000
58.83736 189.000
58.85407 190.000
58.87078 191.000
58.88749 200.000
58.90420 192.000
58.92091 192.000
58.93762 211.000
58.95434 193.000
58.97105 191.000
58.98776 178.000
59.00447 184.000
59.02118 200.000
59.03789 140.000
59.05460 191.000
59.07131 205.000
59.08803 199.000
59.10474 197.000
59.12145 193.000
59.13816 202.000
59.15487 204.000
59.17158 193.000
59.18829 217.000
59.20500 183.000
59.22172 196.000
59.23843 180.000
59.25514 195.000
59.27185 208.000
59.28856 208.000
59.30527 207.000
59.32198 238.000
59.33869 171.000
59.35541 225.000
59.37212 212.000
59.38883 211.000
59.40554 195.000
59.42225 220.000
59.43896 220.000
59.45567 191.000
59.47238 215.000
59.48910 233.000
59.50581 230.000
59.52252 226.000
59.53923 233.000
59.55594 228.000
59.57265 222.000
59.58936 257.000
59.60607 254.000
59.62279 240.000
59.63950 259.000
59.65621 287.000
59.67292 275.000
59.68963 302.000
59.70634 322.000
59.72305 342.000
59.73976 377.000
59.75648 412.000
59.77319 426.000
59.78990 432.000
59.80661 474.000
59.82332 514.000
59.84003 524.000
59.85674 537.000
59.87346 530.000
59.89017 496.000
59.90688 502.000
59.92359 457.000
59.94030 399.000
59.95701 338.000
59.97372 412.000
59.99043 345.000
60.00715 306.000
60.02386 296.000
60.04057 337.000
60.05728 274.000
60.07399 265.000
60.09070 253.000
60.10741 269.000
60.12412 268.000
60.14084 234.000
60.15755 258.000
60.17426 220.000
60.19097 224.000
60.20768 270.000
60.22439 257.000
60.24110 245.000
60.25781 229.000
60.27453 232.000
60.29124 262.000
60.30795 230.000
60.32466 267.000
60.34137 254.000
60.35808 254.000
60.37479 218.000
60.39150 212.000
60.40822 230.000
60.42493 201.000
60.44164 208.000
60.45835 209.000
60.47506 233.000
60.49177 202.000
60.50848 224.000
60.52519 234.000
60.54191 205.000
60.55862 211.000
60.57533 234.000
60.59204 226.000
60.60875 207.000
60.62546 207.000
60.64217 227.000
60.65888 242.000
60.67560 200.000
60.69231 221.000
60.70902 212.000
60.72573 224.000
60.74244 209.000
60.75915 210.000
60.77586 217.000
60.79257 202.000
60.80929 195.000
60.82600 210.000
60.84271 220.000
60.85942 214.000
60.87613 248.000
60.89284 230.000
60.90955 228.000
60.92627 233.000
60.94298 228.000
60.95969 255.000
60.97640 307.000
60.99311 272.000
61.00982 335.000
61.02653 306.000
61.04324 311.000
61.05996 309.000
61.07667 275.000
61.09338 259.000
61.11009 244.000
61.12680 234.000
61.14351 251.000
61.16022 240.000
61.17693 222.000
61.19365 230.000
61.21036 252.000
61.22707 225.000
61.24378 214.000
61.26049 196.000
61.27720 196.000
61.29391 242.000
61.31062 212.000
61.32734 227.000
61.34405 207.000
61.36076 215.000
61.37747 198.000
61.39418 207.000
61.41089 199.000
61.42760 207.000
61.44431 240.000
61.46103 204.000
61.47774 198.000
61.49445 220.000
61.51116 264.000
61.52787 194.000
61.54458 214.000
61.56129 247.000
61.57800 236.000
61.59472 231.000
61.61143 230.000
61.62814 279.000
61.64485 233.000
61.66156 267.000
61.67827 261.000
61.69498 262.000
61.71169 244.000
61.72841 265.000
61.74512 258.000
61.76183 258.000
61.77854 272.000
61.79525 281.000
61.81196 259.000
61.82867 241.000
61.84538 226.000
61.86210 262.000
61.87881 238.000
61.89552 245.000
61.91223 214.000
61.92894 218.000
61.94565 195.000
61.96236 239.000
61.97908 226.000
61.99579 238.000
62.01250 234.000
62.02921 218.000
62.04592 202.000
62.06263 230.000
62.07934 217.000
62.09605 209.000
62.11277 199.000
62.12948 181.000
62.14619 200.000
62.16290 212.000
62.17961 197.000
62.19632 202.000
62.21303 193.000
62.22974 223.000
62.24646 205.000
62.26317 176.000
62.27988 193.000
62.29659 200.000
62.31330 194.000
62.33001 209.000
62.34672 196.000
62.36343 206.000
62.38015 210.000
62.39686 195.000
62.41357 221.000
62.43028 194.000
62.44699 195.000
62.46370 212.000
62.48041 200.000
62.49712 183.000
62.51384 173.000
62.53055 204.000
62.54726 223.000
62.56397 192.000
62.58068 205.000
62.59739 210.000
62.61410 195.000
62.63081 227.000
62.64753 185.000
62.66424 205.000
62.68095 200.000
62.69766 189.000
62.71437 165.000
62.73108 197.000
62.74779 170.000
62.76450 195.000
62.78122 197.000
62.79793 220.000
62.81464 204.000
62.83135 184.000
62.84806 185.000
62.86477 196.000
62.88148 207.000
62.89819 207.000
62.91491 181.000
62.93162 195.000
62.94833 193.000
62.96504 202.000
62.98175 194.000
62.99846 199.000
63.01517 221.000
63.03189 216.000
63.04860 252.000
63.06531 256.000
63.08202 333.000
63.09873 457.000
63.11544 593.000
63.13215 749.000
63.14886 786.000
63.16558 632.000
63.18229 466.000
63.19900 359.000
63.21571 303.000
63.23242 298.000
63.24913 261.000
63.26584 256.000
63.28255 221.000
63.29927 231.000
63.31598 259.000
63.33269 245.000
63.34940 263.000
63.36611 277.000
63.38282 267.000
63.39953 273.000
63.41624 303.000
63.43296 296.000
63.44967 321.000
63.46638 308.000
63.48309 343.000
63.49980 292.000
63.51651 308.000
63.53322 290.000
63.54993 302.000
63.56665 264.000
63.58336 238.000
63.60007 257.000
63.61678 253.000
63.63349 256.000
63.65020 243.000
63.66691 215.000
63.68362 241.000
63.70034 216.000
63.71705 245.000
63.73376 210.000
63.75047 231.000
63.76718 212.000
63.78389 214.000
63.80060 220.000
63.81731 211.000
63.83403 221.000
63.85074 217.000
63.86745 194.000
63.88416 189.000
63.90087 218.000
63.91758 224.000
63.93429 220.000
63.95100 185.000
63.96772 202.000
63.98443 200.000
64.00114 199.000
64.01785 192.000
64.03456 184.000
64.05127 208.000
64.06798 223.000
64.08470 230.000
64.10141 184.000
64.11812 210.000
64.13483 195.000
64.15154 224.000
64.16825 218.000
64.18496 197.000
64.20167 186.000
64.21839 200.000
64.23510 200.000
64.25181 199.000
64.26852 192.000
64.28523 200.000
64.30194 209.000
64.31865 193.000
64.33536 225.000
64.35208 193.000
64.36879 206.000
64.38550 217.000
64.40221 233.000
64.41892 191.000
64.43563 199.000
64.45234 209.000
64.46905 195.000
64.48577 204.000
64.50248 171.000
64.51919 190.000
64.53590 221.000
64.55261 191.000
64.56932 204.000
64.58603 236.000
64.60274 216.000
64.61946 207.000
64.63617 222.000
64.65288 209.000
64.66959 216.000
64.68630 217.000
64.70301 223.000
64.71972 230.000
64.73643 263.000
64.75315 228.000
64.76986 228.000
64.78657 259.000
64.80328 284.000
64.81999 249.000
64.83670 224.000
64.85341 225.000
64.87012 237.000
64.88684 220.000
64.90355 221.000
64.92026 220.000
64.93697 238.000
64.95368 214.000
64.97039 205.000
64.98710 221.000
65.00381 197.000
65.02053 230.000
65.03724 186.000
65.05395 199.000
65.07066 193.000
65.08737 210.000
65.10408 207.000
65.12079 185.000
65.13751 201.000
65.15422 226.000
65.17093 198.000
65.18764 205.000
65.20435 208.000
65.22106 222.000
65.23777 251.000
65.25448 232.000
65.27120 241.000
65.28791 262.000
65.30462 217.000
65.32133 272.000
65.33804 256.000
65.35475 298.000
65.37146 269.000
65.38817 290.000
65.40489 327.000
65.42160 353.000
65.43831 400.000
65.45502 346.000
65.47173 370.000
65.48844 402.000
65.50515 429.000
65.52186 414.000
65.53858 424.000
65.55529 406.000
65.57200 400.000
65.58871 374.000
65.60542 365.000
65.62213 369.000
65.63884 331.000
65.65555 347.000
65.67227 311.000
65.68898 283.000
65.70569 279.000
65.72240 301.000
65.73911 273.000
65.75582 274.000
65.77253 254.000
65.78924 227.000
65.80596 223.000
65.82267 245.000
65.83938 246.000
65.85609 198.000
65.87280 202.000
65.88951 228.000
65.90622 210.000
65.92293 185.000
65.93965 254.000
65.95636 198.000
65.97307 225.000
65.98978 191.000
66.00649 193.000
66.02320 201.000
66.03991 216.000
66.05662 225.000
66.07334 204.000
66.09005 213.000
66.10676 201.000
66.12347 209.000
66.14018 175.000
66.15689 209.000
66.17360 205.000
66.19032 195.000
66.20703 207.000
66.22374 202.000
66.24045 206.000
66.25716 179.000
66.27387 210.000
66.29058 194.000
66.30729 214.000
66.32401 193.000
66.34072 214.000
66.35743 168.000
66.37414 215.000
66.39085 232.000
66.40756 196.000
66.42427 224.000
66.44098 198.000
66.45770 216.000
66.47441 224.000
66.49112 214.000
66.50783 216.000
66.52454 216.000
66.54125 194.000
66.55796 214.000
66.57467 214.000
66.59139 206.000
66.60810 202.000
66.62481 211.000
66.64152 222.000
66.65823 200.000
66.67494 229.000
66.69165 228.000
66.70836 232.000
66.72508 211.000
66.74179 224.000
66.75850 268.000
66.77521 239.000
66.79192 292.000
66.80863 275.000
66.82534 275.000
66.84205 283.000
66.85877 233.000
66.87548 231.000
66.89219 223.000
66.90890 222.000
66.92561 236.000
66.94232 238.000
66.95903 229.000
66.97574 215.000
66.99246 230.000
67.00917 225.000
67.02588 214.000
67.04259 226.000
67.05930 220.000
67.07601 221.000
67.09272 233.000
67.10943 243.000
67.12615 252.000
67.14286 257.000
67.15957 254.000
67.17628 288.000
67.19299 279.000
67.20970 284.000
67.22641 345.000
67.24313 298.000
67.25984 317.000
67.27655 349.000
67.29326 387.000
67.30997 377.000
67.32668 409.000
67.34339 398.000
67.36010 468.000
67.37682 478.000
67.39353 513.000
67.41024 721.000
67.42695 980.000
67.44366 1341.000
67.46037 1713.000
67.47708 1787.000
67.49379 1559.000
67.51051 1176.000
67.52722 753.000
67.54393 526.000
67.56064 410.000
67.57735 311.000
67.59406 279.000
67.61077 292.000
67.62748 247.000
67.64420 261.000
67.66091 239.000
67.67762 238.000
67.69433 238.000
67.71104 205.000
67.72775 221.000
67.74446 208.000
67.76117 214.000
67.77789 208.000
67.79460 214.000
67.81131 226.000
67.82802 212.000
67.84473 191.000
67.86144 212.000
67.87815 177.000
67.89486 196.000
67.91158 213.000
67.92829 206.000
67.94500 177.000
67.96171 179.000
67.97842 210.000
67.99513 194.000
68.01184 193.000
68.02855 191.000
68.04527 190.000
68.06198 183.000
68.07869 152.000
68.09540 200.000
68.11211 179.000
68.12882 184.000
68.14553 194.000
68.16224 193.000
68.17896 167.000
68.19567 179.000
68.21238 210.000
68.22909 191.000
68.24580 194.000
68.26251 155.000
68.27922 195.000
68.29594 210.000
68.31265 180.000
68.32936 183.000
68.34607 169.000
68.36278 209.000
68.37949 171.000
68.39620 169.000
68.41291 174.000
68.42963 181.000
68.44634 175.000
68.46305 183.000
68.47976 192.000
68.49647 195.000
68.51318 198.000
68.52989 154.000
68.54660 181.000
68.56332 174.000
68.58003 177.000
68.59674 192.000
68.61345 187.000
68.63016 180.000
68.64687 196.000
68.66358 196.000
68.68029 185.000
68.69701 164.000
68.71372 198.000
68.73043 194.000
68.74714 179.000
68.76385 179.000
68.78056 201.000
68.79727 191.000
68.81398 184.000
68.83070 187.000
68.84741 202.000
68.86412 213.000
68.88083 201.000
68.89754 190.000
68.91425 186.000
68.93096 215.000
68.94767 222.000
68.96439 202.000
68.98110 211.000
68.99781 223.000
69.01452 236.000
69.03123 210.000
69.04794 214.000
69.06465 223.000
69.08136 198.000
69.09808 169.000
69.11479 218.000
69.13150 218.000
69.14821 181.000
69.16492 209.000
69.18163 198.000
69.19834 193.000
69.21505 196.000
69.23177 210.000
69.24848 178.000
69.26519 206.000
69.28190 198.000
69.29861 180.000
69.31532 193.000
69.33203 190.000
69.34875 191.000
69.36546 187.000
69.38217 182.000
69.39888 176.000
69.41559 193.000
69.43230 215.000
69.44901 210.000
69.46572 194.000
69.48244 192.000
69.49915 210.000
69.51586 214.000
69.53257 210.000
69.54928 233.000
69.56599 213.000
69.58270 225.000
69.59941 185.000
69.61613 197.000
69.63284 183.000
69.64955 173.000
69.66626 162.000
69.68297 193.000
69.69968 157.000
69.71639 204.000
69.73310 190.000
69.74982 173.000
69.76653 159.000
69.78324 175.000
69.79995 162.000
69.81666 189.000
69.83337 196.000
69.85008 184.000
69.86679 195.000
69.88351 192.000
69.90022 164.000
69.91693 160.000
69.93364 210.000
69.95035 213.000
69.96706 183.000
69.98377 215.000
70.00048 167.000
70.01720 177.000
70.03391 195.000
70.05062 187.000
70.06733 186.000
70.08404 182.000
70.10075 195.000
70.11746 199.000
70.13417 178.000
70.15089 195.000
70.16760 190.000
70.18431 202.000
70.20102 226.000
70.21773 209.000
70.23444 220.000
70.25115 228.000
70.26786 236.000
70.28458 259.000
70.30129 253.000
70.31800 234.000
70.33471 239.000
70.35142 247.000
70.36813 222.000
70.38484 246.000
70.40156 206.000
70.41827 199.000
70.43498 197.000
70.45169 200.000
70.46840 197.000
70.48511 202.000
70.50182 201.000
70.51853 176.000
70.53525 204.000
70.55196 213.000
70.56867 208.000
70.58538 180.000
70.60209 208.000
70.61880 176.000
70.63551 213.000
70.65222 216.000
70.66894 182.000
70.68565 210.000
70.70236 181.000
70.71907 189.000
70.73578 187.000
70.75249 186.000
70.76920 185.000
70.78591 150.000
70.80263 194.000
70.81934 189.000
70.83605 162.000
70.85276 161.000
70.86947 182.000
70.88618 196.000
70.90289 166.000
70.91960 179.000
70.93632 177.000
70.95303 184.000
70.96974 168.000
70.98645 179.000
71.00316 183.000
71.01987 153.000
71.03658 171.000
71.05329 175.000
71.07001 184.000
71.08672 168.000
71.10343 175.000
71.12014 191.000
71.13685 169.000
71.15356 163.000
71.17027 171.000
71.18698 150.000
71.20370 178.000
71.22041 173.000
71.23712 163.000
71.25383 177.000
71.27054 179.000
71.28725 179.000
71.30396 186.000
71.32067 179.000
71.33739 154.000
71.35410 171.000
71.37081 173.000
71.38752 153.000
71.40423 195.000
71.42094 180.000
71.43765 171.000
71.45437 187.000
71.47108 167.000
71.48779 194.000
71.50450 177.000
71.52121 194.000
71.53792 216.000
71.55463 221.000
71.57134 205.000
71.58806 275.000
71.60477 370.000
71.62148 527.000
71.63819 738.000
71.65490 1049.000
71.67161 1209.000
71.68832 1127.000
71.70503 816.000
71.72175 530.000
71.73846 408.000
71.75517 247.000
71.77188 230.000
71.78859 207.000
71.80530 178.000
71.82201 191.000
71.83872 193.000
71.85544 195.000
71.87215 182.000
71.88886 179.000
71.90557 175.000
71.92228 192.000
71.93899 208.000
71.95570 199.000
71.97241 198.000
71.98913 161.000
72.00584 175.000
72.02255 185.000
72.03926 178.000
72.05597 177.000
72.07268 181.000
72.08939 162.000
72.10610 150.000
72.12282 183.000
72.13953 171.000
72.15624 161.000
72.17295 182.000
72.18966 180.000
72.20637 169.000
72.22308 182.000
72.23979 191.000
72.25651 187.000
72.27322 181.000
72.28993 181.000
72.30664 192.000
72.32335 199.000
72.34006 187.000
72.35677 182.000
72.37349 208.000
72.39020 208.000
72.40691 189.000
72.42362 194.000
72.44033 199.000
72.45704 211.000
72.47375 208.000
72.49046 234.000
72.50718 211.000
72.52389 254.000
72.54060 228.000
72.55731 228.000
72.57402 271.000
72.59073 290.000
72.60744 254.000
72.62415 261.000
72.64087 263.000
72.65758 281.000
72.67429 251.000
72.69100 276.000
72.70771 287.000
72.72442 253.000
72.74113 261.000
72.75784 275.000
72.77456 279.000
72.79127 260.000
72.80798 279.000
72.82469 279.000
72.84140 227.000
72.85811 249.000
72.87482 247.000
72.89153 241.000
72.90825 204.000
72.92496 214.000
72.94167 225.000
72.95838 226.000
72.97509 227.000
72.99180 199.000
73.00851 205.000
73.02522 177.000
73.04194 195.000
73.05865 190.000
73.07536 182.000
73.09207 180.000
73.10878 190.000
73.12549 164.000
73.14220 182.000
73.15891 171.000
73.17563 177.000
73.19234 189.000
73.20905 153.000
73.22576 139.000
73.24247 180.000
73.25918 179.000
73.27589 175.000
73.29260 166.000
73.30932 138.000
73.32603 177.000
73.34274 158.000
73.35945 176.000
73.37616 193.000
73.39287 204.000
73.40958 154.000
73.42630 158.000
73.44301 186.000
73.45972 167.000
73.47643 193.000
73.49314 160.000
73.50985 164.000
73.52656 157.000
73.54327 182.000
73.55999 157.000
73.57670 148.000
73.59341 154.000
73.61012 163.000
73.62683 189.000
73.64354 182.000
73.66025 185.000
73.67696 174.000
73.69368 171.000
73.71039 169.000
73.72710 167.000
73.74381 133.000
73.76052 176.000
73.77723 160.000
73.79394 155.000
73.81065 151.000
73.82737 168.000
73.84408 175.000
73.86079 159.000
73.87750 191.000
73.89421 191.000
73.91092 169.000
73.92763 179.000
73.94434 175.000
73.96106 169.000
73.97777 143.000
73.99448 171.000
74.01119 167.000
74.02790 191.000
74.04461 173.000
74.06132 175.000
74.07803 177.000
74.09475 171.000
74.11146 186.000
74.12817 181.000
74.14488 169.000
74.16159 199.000
74.17830 192.000
74.19501 176.000
74.21172 206.000
74.22844 182.000
74.24515 176.000
74.26186 175.000
74.27857 174.000
74.29528 198.000
74.31199 193.000
74.32870 174.000
74.34541 186.000
74.36213 204.000
74.37884 193.000
74.39555 201.000
74.41226 200.000
74.42897 210.000
74.44568 197.000
74.46239 213.000
74.47911 198.000
74.49582 209.000
74.51253 214.000
74.52924 208.000
74.54595 197.000
74.56266 207.000
74.57937 193.000
74.59608 187.000
74.61280 191.000
74.62951 204.000
74.64622 190.000
74.66293 180.000
74.67964 190.000
74.69635 177.000
74.71306 181.000
74.72977 197.000
74.74649 169.000
74.76320 157.000
74.77991 181.000
74.79662 177.000
74.81333 191.000
74.83004 166.000
74.84675 196.000
74.86346 179.000
74.88018 198.000
74.89689 187.000
74.91360 164.000
74.93031 205.000
74.94702 178.000
74.96373 208.000
74.98044 201.000
74.99715 184.000
75.01387 186.000
75.03058 190.000
75.04729 183.000
75.06400 167.000
75.08071 182.000
75.09742 174.000
75.11413 184.000
75.13084 193.000
75.14756 173.000
75.16427 191.000
75.18098 204.000
75.19769 170.000
75.21440 154.000
75.23111 187.000
75.24782 171.000
75.26453 184.000
75.28125 169.000
75.29796 170.000
75.31467 201.000
75.33138 165.000
75.34809 152.000
75.36480 189.000
75.38151 157.000
75.39822 176.000
75.41494 166.000
75.43165 185.000
75.44836 159.000
75.46507 160.000
75.48178 158.000
75.49849 193.000
75.51520 170.000
75.53192 192.000
75.54863 163.000
75.56534 160.000
75.58205 199.000
75.59876 180.000
75.61547 178.000
75.63218 209.000
75.64889 199.000
75.66561 236.000
75.68232 256.000
75.69903 280.000
75.71574 342.000
75.73245 512.000
75.74916 681.000
75.76587 808.000
75.78258 798.000
75.79930 741.000
75.81601 490.000
75.83272 413.000
75.84943 312.000
75.86614 233.000
75.88285 225.000
75.89956 218.000
75.91627 237.000
75.93299 194.000
75.94970 230.000
75.96641 207.000
75.98312 210.000
75.99983 207.000
76.01654 190.000
76.03325 194.000
76.04996 204.000
76.06668 227.000
76.08339 212.000
76.10010 207.000
76.11681 224.000
76.13352 230.000
76.15023 217.000
76.16694 213.000
76.18365 213.000
76.20037 210.000
76.21708 204.000
76.23379 223.000
76.25050 211.000
76.26721 214.000
76.28392 202.000
76.30063 198.000
76.31734 227.000
76.33406 180.000
76.35077 171.000
76.36748 211.000
76.38419 160.000
76.40090 223.000
76.41761 184.000
76.43432 166.000
76.45103 170.000
76.46775 179.000
76.48446 170.000
76.50117 192.000
76.51788 201.000
76.53459 169.000
76.55130 174.000
76.56801 166.000
76.58473 192.000
76.60144 155.000
76.61815 177.000
76.63486 168.000
76.65157 175.000
76.66828 151.000
76.68499 167.000
76.70170 166.000
76.71842 151.000
76.73513 182.000
76.75184 191.000
76.76855 177.000
76.78526 164.000
76.80197 180.000
76.81868 157.000
76.83539 155.000
76.85211 160.000
76.86882 186.000
76.88553 150.000
76.90224 150.000
76.91895 164.000
76.93566 168.000
76.95237 176.000
76.96908 157.000
76.98580 196.000
77.00251 177.000
77.01922 192.000
77.03593 185.000
77.05264 183.000
77.06935 174.000
77.08606 177.000
77.10277 189.000
77.11949 160.000
77.13620 165.000
77.15291 161.000
77.16962 170.000
77.18633 168.000
77.20304 167.000
77.21975 194.000
77.23646 145.000
77.25318 162.000
77.26989 166.000
77.28660 176.000
77.30331 148.000
77.32002 161.000
77.33673 153.000
77.35344 181.000
77.37015 179.000
77.38687 159.000
77.40358 174.000
77.42029 163.000
77.43700 173.000
77.45371 182.000
77.47042 152.000
77.48713 166.000
77.50384 169.000
77.52056 173.000
77.53727 145.000
77.55398 139.000
77.57069 164.000
77.58740 148.000
77.60411 147.000
77.62082 146.000
77.63754 167.000
77.65425 151.000
77.67096 194.000
77.68767 142.000
77.70438 150.000
77.72109 185.000
77.73780 159.000
77.75451 155.000
77.77123 168.000
77.78794 171.000
77.80465 145.000
77.82136 143.000
77.83807 150.000
77.85478 157.000
77.87149 150.000
77.88820 138.000
77.90492 165.000
77.92163 175.000
77.93834 178.000
77.95505 144.000
77.97176 164.000
77.98847 137.000
78.00518 155.000
78.02189 150.000
78.03861 145.000
78.05532 160.000
78.07203 139.000
78.08874 153.000
78.10545 160.000
78.12216 153.000
78.13887 146.000
78.15558 158.000
78.17230 150.000
78.18901 152.000
78.20572 165.000
78.22243 174.000
78.23914 130.000
78.25585 164.000
78.27256 165.000
78.28927 137.000
78.30599 154.000
78.32270 145.000
78.33941 148.000
78.35612 158.000
78.37283 167.000
78.38954 133.000
78.40625 174.000
78.42296 162.000
78.43968 158.000
78.45639 149.000
78.47310 179.000
78.48981 146.000
78.50652 155.000
78.52323 177.000
78.53994 165.000
78.55665 162.000
78.57337 139.000
78.59008 158.000
78.60679 151.000
78.62350 164.000
78.64021 160.000
78.65692 163.000
78.67363 160.000
78.69035 155.000
78.70706 143.000
78.72377 157.000
78.74048 148.000
78.75719 154.000
78.77390 162.000
78.79061 153.000
78.80732 150.000
78.82404 145.000
78.84075 165.000
78.85746 154.000
78.87417 148.000
78.89088 169.000
78.90759 160.000
78.92430 160.000
78.94101 152.000
78.95773 179.000
78.97444 174.000
78.99115 146.000
79.00786 174.000
79.02457 159.000
79.04128 178.000
79.05799 171.000
79.07470 138.000
79.09142 149.000
79.10813 133.000
79.12484 158.000
79.14155 166.000
79.15826 126.000
79.17497 163.000
79.19168 142.000
79.20839 153.000
79.22511 163.000
79.24182 152.000
79.25853 167.000
79.27524 134.000
79.29195 165.000
79.30866 181.000
79.32537 187.000
79.34208 176.000
79.35880 131.000
79.37551 153.000
79.39222 142.000
79.40893 145.000
79.42564 175.000
79.44235 129.000
79.45906 150.000
79.47577 169.000
79.49249 151.000
79.50920 154.000
79.52591 145.000
79.54262 153.000
79.55933 180.000
79.57604 153.000
79.59275 148.000
79.60946 155.000
79.62618 155.000
79.64289 160.000
79.65960 171.000
79.67631 162.000
79.69302 165.000
79.70973 198.000
79.72644 175.000
79.74316 199.000
79.75987 218.000
79.77658 239.000
79.79329 270.000
79.81000 233.000
79.82671 233.000
79.84342 211.000
79.86013 169.000
79.87685 199.000
79.89356 181.000
79.91027 157.000
79.92698 166.000
79.94369 158.000
79.96040 161.000
79.97711 180.000
79.99382 161.000
