
4	30154.00
4.015	30184.00
4.03	30258.00
4.045	30651.00
4.06	30250.00
4.075	30336.00
4.09	30245.00
4.105	30226.00
4.12	30375.00
4.135	30222.00
4.15	30310.00
4.165	30992.00
4.18	30875.00
4.195	30797.00
4.21	30538.00
4.225	30216.00
4.24	30486.00
4.255	30680.00
4.27	30944.00
4.285	30995.00
4.3	30824.00
4.315	31092.00
4.33	30697.00
4.345	30846.00
4.36	30430.00
4.375	30344.00
4.39	30344.00
4.405	30505.00
4.42	30636.00
4.435	30485.00
4.45	30634.00
4.465	30724.00
4.48	30906.00
4.495	30586.00
4.51	30517.00
4.525	30086.00
4.54	30634.00
4.555	30459.00
4.57	30530.00
4.585	30021.00
4.6	30182.00
4.615	30276.00
4.63	30383.00
4.645	30389.00
4.66	30531.00
4.675	30879.00
4.69	30579.00
4.705	30065.00
4.72	30401.00
4.735	30354.00
4.75	30525.00
4.765	30406.00
4.78	30407.00
4.795	30641.00
4.81	30248.00
4.825	30375.00
4.84	30309.00
4.855	30323.00
4.87	30515.00
4.885	30704.00
4.9	30185.00
4.915	30150.00
4.93	30242.00
4.945	30709.00
4.96	30377.00
4.975	30512.00
4.99	30343.00
5.005	30412.00
5.02	30432.00
5.035	30179.00
5.05	30357.00
5.065	30439.00
5.08	30541.00
5.095	30472.00
5.11	30317.00
5.125	30381.00
5.14	30279.00
5.155	30164.00
5.17	30299.00
5.185	30259.00
5.2	30073.00
5.215	29948.00
5.23	30180.00
5.245	30124.00
5.26	29937.00
5.275	30177.00
5.29	30151.00
5.305	29988.00
5.32	30116.00
5.335	30216.00
5.35	30157.00
5.365	30007.00
5.38	30067.00
5.395	30103.00
5.41	29897.00
5.425	29802.00
5.44	29650.00
5.455	29764.00
5.47	30166.00
5.485	30107.00
5.5	29987.00
5.515	30001.00
5.53	29839.00
5.545	29900.00
5.56	29938.00
5.575	29803.00
5.59	29640.00
5.605	29519.00
5.62	29810.00
5.635	29905.00
5.65	30216.00
5.665	29843.00
5.68	29817.00
5.695	29765.00
5.71	30082.00
5.725	30044.00
5.74	29972.00
5.755	29865.00
5.77	29795.00
5.785	29845.00
5.8	29693.00
5.815	29357.00
5.83	29651.00
5.845	29738.00
5.86	29608.00
5.875	29736.00
5.89	29848.00
5.905	29799.00
5.92	29666.00
5.935	29826.00
5.95	29923.00
5.965	29892.00
5.98	30178.00
5.995	29839.00
6.01	29794.00
6.025	29480.00
6.04	29775.00
6.055	29845.00
6.07	30189.00
6.085	30114.00
6.1	30143.00
6.115	30125.00
6.13	30189.00
6.145	30260.00
6.16	30618.00
6.175	30244.00
6.19	30496.00
6.205	30643.00
6.22	30348.00
6.235	30653.00
6.25	30485.00
6.265	30758.00
6.28	31015.00
6.295	31054.00
6.31	31018.00
6.325	31289.00
6.34	31136.00
6.355	31157.00
6.37	31609.00
6.385	31676.00
6.4	31953.00
6.415	31982.00
6.43	32179.00
6.445	32066.00
6.46	31984.00
6.475	32784.00
6.49	32745.00
6.505	33081.00
6.52	33207.00
6.535	33065.00
6.55	33830.00
6.565	34078.00
6.58	34369.00
6.595	34486.00
6.61	34974.00
6.625	35242.00
6.64	35449.00
6.655	36000.00
6.67	36235.00
6.685	37061.00
6.7	37515.00
6.715	37692.00
6.73	38828.00
6.745	39407.00
6.76	39847.00
6.775	40962.00
6.79	41751.00
6.805	43151.00
6.82	44484.00
6.835	46142.00
6.85	48458.00
6.865	50814.00
6.88	53693.00
6.895	58904.00
6.91	67103.00
6.925	73769.00
6.94	71807.00
6.955	57876.00
6.97	42221.00
6.985	33987.00
7	30997.00
7.015	30156.00
7.03	29847.00
7.045	29937.00
7.06	29622.00
7.075	29527.00
7.09	29470.00
7.105	29327.00
7.12	29472.00
7.135	29256.00
7.15	29314.00
7.165	29220.00
7.18	29282.00
7.195	29118.00
7.21	29383.00
7.225	29228.00
7.24	29263.00
7.255	29511.00
7.27	29623.00
7.285	29506.00
7.3	29336.00
7.315	29023.00
7.33	29352.00
7.345	29419.00
7.36	29366.00
7.375	29464.00
7.39	29463.00
7.405	29548.00
7.42	29288.00
7.435	29381.00
7.45	29535.00
7.465	29328.00
7.48	29323.00
7.495	29515.00
7.51	29466.00
7.525	29497.00
7.54	29510.00
7.555	29477.00
7.57	29361.00
7.585	29334.00
7.6	29485.00
7.615	29343.00
7.63	29286.00
7.645	29197.00
7.66	29267.00
7.675	29773.00
7.69	29539.00
7.705	29310.00
7.72	29644.00
7.735	29473.00
7.75	29244.00
7.765	29410.00
7.78	29321.00
7.795	29397.00
7.81	29658.00
7.825	29545.00
7.84	29671.00
7.855	29619.00
7.87	29475.00
7.885	29466.00
7.9	29298.00
7.915	29387.00
7.93	29675.00
7.945	29816.00
7.96	29665.00
7.975	29389.00
7.99	29561.00
8.005	29501.00
8.02	29425.00
8.035	29572.00
8.05	29772.00
8.065	29745.00
8.08	29663.00
8.095	29495.00
8.11	29711.00
8.125	29176.00
8.14	29629.00
8.155	29479.00
8.17	29601.00
8.185	29754.00
8.2	29950.00
8.215	29537.00
8.23	29844.00
8.245	29474.00
8.26	29866.00
8.275	29773.00
8.29	29738.00
8.305	29465.00
8.32	29882.00
8.335	30024.00
8.35	29816.00
8.365	29809.00
8.38	30251.00
8.395	30270.00
8.41	30136.00
8.425	29749.00
8.44	29723.00
8.455	30275.00
8.47	30050.00
8.485	29992.00
8.5	29672.00
8.515	29858.00
8.53	30220.00
8.545	30031.00
8.56	29721.00
8.575	29710.00
8.59	29721.00
8.605	29684.00
8.62	29701.00
8.635	29620.00
8.65	29640.00
8.665	29760.00
8.68	29606.00
8.695	29375.00
8.71	29313.00
8.725	29645.00
8.74	29536.00
8.755	29705.00
8.77	29478.00
8.785	29288.00
8.8	29203.00
8.815	29223.00
8.83	28816.00
8.845	28946.00
8.86	29001.00
8.875	28547.00
8.89	28785.00
8.905	28682.00
8.92	28505.00
8.935	28676.00
8.95	28276.00
8.965	28046.00
8.98	28243.00
8.995	28018.00
9.01	27936.00
9.025	27884.00
9.04	27861.00
9.055	27781.00
9.07	27750.00
9.085	27471.00
9.1	27721.00
9.115	27608.00
9.13	27420.00
9.145	27331.00
9.16	26970.00
9.175	27223.00
9.19	27046.00
9.205	26939.00
9.22	27007.00
9.235	26555.00
9.25	26587.00
9.265	26752.00
9.28	26384.00
9.295	26504.00
9.31	26532.00
9.325	26566.00
9.34	26629.00
9.355	26253.00
9.37	26263.00
9.385	26218.00
9.4	26090.00
9.415	26082.00
9.43	25834.00
9.445	25902.00
9.46	25851.00
9.475	25910.00
9.49	25758.00
9.505	25410.00
9.52	25259.00
9.535	25232.00
9.55	25276.00
9.565	25381.00
9.58	25153.00
9.595	24807.00
9.61	25051.00
9.625	25257.00
9.64	24844.00
9.655	24893.00
9.67	24896.00
9.685	24527.00
9.7	24704.00
9.715	24498.00
9.73	24703.00
9.745	24859.00
9.76	24324.00
9.775	24333.00
9.79	24153.00
9.805	23937.00
9.82	23716.00
9.835	23785.00
9.85	23693.00
9.865	23930.00
9.88	23651.00
9.895	23707.00
9.91	23763.00
9.925	23427.00
9.94	23471.00
9.955	23805.00
9.97	23289.00
9.985	23191.00
10	23122.00
10.015	23014.00
10.03	23171.00
10.045	23422.00
10.06	23227.00
10.075	23028.00
10.09	22950.00
10.105	22884.00
10.12	22674.00
10.135	22909.00
10.15	23179.00
10.165	23147.00
10.18	22960.00
10.195	22717.00
10.21	22423.00
10.225	22603.00
10.24	22656.00
10.255	22753.00
10.27	22867.00
10.285	22730.00
10.3	22702.00
10.315	22856.00
10.33	22440.00
10.345	22409.00
10.36	22503.00
10.375	22494.00
10.39	22112.00
10.405	22445.00
10.42	22180.00
10.435	22303.00
10.45	22261.00
10.465	22382.00
10.48	22412.00
10.495	22515.00
10.51	22395.00
10.525	21979.00
10.54	21998.00
10.555	21806.00
10.57	21629.00
10.585	21663.00
10.6	21542.00
10.615	21714.00
10.63	21476.00
10.645	21631.00
10.66	21522.00
10.675	21492.00
10.69	21570.00
10.705	21260.00
10.72	21295.00
10.735	21480.00
10.75	21383.00
10.765	21323.00
10.78	21249.00
10.795	21312.00
10.81	21300.00
10.825	21307.00
10.84	21305.00
10.855	21181.00
10.87	21220.00
10.885	21057.00
10.9	20969.00
10.915	20647.00
10.93	20937.00
10.945	21057.00
10.96	20897.00
10.975	21126.00
10.99	20988.00
11.005	20981.00
11.02	21233.00
11.035	21083.00
11.05	20721.00
11.065	20773.00
11.08	20852.00
11.095	20936.00
11.11	21027.00
11.125	21024.00
11.14	20975.00
11.155	21089.00
11.17	21057.00
11.185	21163.00
11.2	21116.00
11.215	21271.00
11.23	21164.00
11.245	20982.00
11.26	21419.00
11.275	21803.00
11.29	21945.00
11.305	22114.00
11.32	22554.00
11.335	22855.00
11.35	22718.00
11.365	22194.00
11.38	21330.00
11.395	20706.00
11.41	20343.00
11.425	20379.00
11.44	20338.00
11.455	20236.00
11.47	20296.00
11.485	20189.00
11.5	20015.00
11.515	19962.00
11.53	19712.00
11.545	19819.00
11.56	20162.00
11.575	20067.00
11.59	20046.00
11.605	19999.00
11.62	19832.00
11.635	19857.00
11.65	20008.00
11.665	19981.00
11.68	19963.00
11.695	19973.00
11.71	20067.00
11.725	19988.00
11.74	19582.00
11.755	19806.00
11.77	20160.00
11.785	19918.00
11.8	19853.00
11.815	19844.00
11.83	19953.00
11.845	19734.00
11.86	19629.00
11.875	19610.00
11.89	19974.00
11.905	19786.00
11.92	19730.00
11.935	19507.00
11.95	19653.00
11.965	19646.00
11.98	20007.00
11.995	19487.00
12.01	19704.00
12.025	19516.00
12.04	19547.00
12.055	19763.00
12.07	19746.00
12.085	19679.00
12.1	19773.00
12.115	19605.00
12.13	19446.00
12.145	19431.00
12.16	19503.00
12.175	19182.00
12.19	19432.00
12.205	19364.00
12.22	18948.00
12.235	19304.00
12.25	19143.00
12.265	19121.00
12.28	19081.00
12.295	19027.00
12.31	18946.00
12.325	18892.00
12.34	19009.00
12.355	18809.00
12.37	18927.00
12.385	18851.00
12.4	18637.00
12.415	18514.00
12.43	18536.00
12.445	18639.00
12.46	18315.00
12.475	18530.00
12.49	18581.00
12.505	18482.00
12.52	18528.00
12.535	18395.00
12.55	18575.00
12.565	18315.00
12.58	18305.00
12.595	18230.00
12.61	18506.00
12.625	18321.00
12.64	18049.00
12.655	18209.00
12.67	18073.00
12.685	18234.00
12.7	18327.00
12.715	18405.00
12.73	18242.00
12.745	18160.00
12.76	18166.00
12.775	18404.00
12.79	18485.00
12.805	18469.00
12.82	18065.00
12.835	18461.00
12.85	18498.00
12.865	18280.00
12.88	17838.00
12.895	17830.00
12.91	18115.00
12.925	17733.00
12.94	17776.00
12.955	17746.00
12.97	17641.00
12.985	17791.00
13	17699.00
13.015	17728.00
13.03	17627.00
13.045	17773.00
13.06	17741.00
13.075	17672.00
13.09	17824.00
13.105	17972.00
13.12	18247.00
13.135	18129.00
13.15	18148.00
13.165	18475.00
13.18	18534.00
13.195	18574.00
13.21	19178.00
13.225	19640.00
13.24	20175.00
13.255	20479.00
13.27	21306.00
13.285	21981.00
13.3	22553.00
13.315	23070.00
13.33	23720.00
13.345	23547.00
13.36	23710.00
13.375	24735.00
13.39	25725.00
13.405	26383.00
13.42	26763.00
13.435	27629.00
13.45	28784.00
13.465	29983.00
13.48	31535.00
13.495	33304.00
13.51	35169.00
13.525	37695.00
13.54	39835.00
13.555	42275.00
13.57	45197.00
13.585	48659.00
13.6	52797.00
13.615	57017.00
13.63	62209.00
13.645	67228.00
13.66	73897.00
13.675	80828.00
13.69	88675.00
13.705	97604.00
13.72	108236.00
13.735	119559.00
13.75	132818.00
13.765	147268.00
13.78	165960.00
13.795	186964.00
13.81	216125.00
13.825	246254.00
13.84	290160.00
13.855	350582.00
13.87	438307.00
13.885	553425.00
13.9	616450.00
13.915	568839.00
13.93	440126.00
13.945	268181.00
13.96	122126.00
13.975	52316.00
13.99	32774.00
14.005	26659.00
14.02	24128.00
14.035	22404.00
14.05	21363.00
14.065	20271.00
14.08	19610.00
14.095	18797.00
14.11	18602.00
14.125	18106.00
14.14	18040.00
14.155	17756.00
14.17	17630.00
14.185	17502.00
14.2	17372.00
14.215	17199.00
14.23	17179.00
14.245	17054.00
14.26	17211.00
14.275	17179.00
14.29	17201.00
14.305	16787.00
14.32	16856.00
14.335	16888.00
14.35	16639.00
14.365	16879.00
14.38	16913.00
14.395	17005.00
14.41	16720.00
14.425	16871.00
14.44	16846.00
14.455	17159.00
14.47	16689.00
14.485	16617.00
14.5	16943.00
14.515	16890.00
14.53	16934.00
14.545	17037.00
14.56	16901.00
14.575	17240.00
14.59	17092.00
14.605	16890.00
14.62	17299.00
14.635	17358.00
14.65	17318.00
14.665	17306.00
14.68	17547.00
14.695	17448.00
14.71	17467.00
14.725	17631.00
14.74	17679.00
14.755	17763.00
14.77	17702.00
14.785	17801.00
14.8	18173.00
14.815	18299.00
14.83	18136.00
14.845	18429.00
14.86	18570.00
14.875	18675.00
14.89	18963.00
14.905	18974.00
14.92	19122.00
14.935	19636.00
14.95	19701.00
14.965	19828.00
14.98	20411.00
14.995	20854.00
15.01	21073.00
15.025	21059.00
15.04	21231.00
15.055	21514.00
15.07	21891.00
15.085	22155.00
15.1	22456.00
15.115	22792.00
15.13	23030.00
15.145	23323.00
15.16	23423.00
15.175	23904.00
15.19	24190.00
15.205	24466.00
15.22	24817.00
15.235	24914.00
15.25	25015.00
15.265	24970.00
15.28	24323.00
15.295	23398.00
15.31	22334.00
15.325	20688.00
15.34	19159.00
15.355	17837.00
15.37	16894.00
15.385	16035.00
15.4	15714.00
15.415	15642.00
15.43	15100.00
15.445	14820.00
15.46	14633.00
15.475	14662.00
15.49	14593.00
15.505	14523.00
15.52	14398.00
15.535	14342.00
15.55	14529.00
15.565	14584.00
15.58	14586.00
15.595	14406.00
15.61	14712.00
15.625	15041.00
15.64	15224.00
15.655	15196.00
15.67	15239.00
15.685	15423.00
15.7	15831.00
15.715	16154.00
15.73	16341.00
15.745	16955.00
15.76	17227.00
15.775	17620.00
15.79	18228.00
15.805	18868.00
15.82	19434.00
15.835	20483.00
15.85	21196.00
15.865	22295.00
15.88	23670.00
15.895	25327.00
15.91	27221.00
15.925	29317.00
15.94	32026.00
15.955	35206.00
15.97	38215.00
15.985	42508.00
16	46634.00
16.015	54071.00
16.03	64886.00
16.045	79279.00
16.06	89379.00
16.075	89420.00
16.09	78407.00
16.105	61003.00
16.12	40925.00
16.135	25208.00
16.15	17947.00
16.165	15784.00
16.18	15170.00
16.195	14798.00
16.21	14439.00
16.225	14029.00
16.24	14142.00
16.255	14035.00
16.27	14117.00
16.285	14041.00
16.3	14098.00
16.315	14076.00
16.33	13766.00
16.345	13673.00
16.36	13510.00
16.375	13775.00
16.39	13413.00
16.405	13468.00
16.42	13609.00
16.435	13672.00
16.45	13509.00
16.465	13523.00
16.48	13333.00
16.495	13638.00
16.51	13428.00
16.525	13207.00
16.54	13407.00
16.555	13360.00
16.57	13223.00
16.585	12933.00
16.6	13086.00
16.615	13158.00
16.63	13134.00
16.645	13017.00
16.66	13187.00
16.675	13107.00
16.69	13094.00
16.705	13132.00
16.72	13062.00
16.735	12950.00
16.75	13012.00
16.765	13072.00
16.78	12999.00
16.795	13077.00
16.81	12983.00
16.825	13025.00
16.84	13339.00
16.855	13343.00
16.87	13368.00
16.885	13111.00
16.9	13069.00
16.915	13103.00
16.93	13169.00
16.945	13351.00
16.96	13329.00
16.975	13265.00
16.99	13136.00
17.005	13026.00
17.02	13005.00
17.035	12967.00
17.05	13024.00
17.065	12937.00
17.08	12945.00
17.095	12900.00
17.11	12864.00
17.125	13012.00
17.14	13049.00
17.155	12865.00
17.17	12877.00
17.185	12914.00
17.2	12969.00
17.215	12931.00
17.23	12986.00
17.245	13047.00
17.26	13005.00
17.275	12966.00
17.29	13137.00
17.305	13139.00
17.32	13067.00
17.335	13148.00
17.35	13276.00
17.365	13250.00
17.38	13225.00
17.395	13426.00
17.41	13497.00
17.425	13618.00
17.44	13805.00
17.455	13950.00
17.47	13944.00
17.485	14158.00
17.5	14368.00
17.515	14634.00
17.53	14414.00
17.545	14376.00
17.56	14365.00
17.575	13944.00
17.59	13625.00
17.605	13374.00
17.62	13340.00
17.635	13507.00
17.65	13640.00
17.665	13510.00
17.68	13472.00
17.695	13311.00
17.71	13194.00
17.725	13181.00
17.74	13090.00
17.755	13103.00
17.77	12914.00
17.785	12807.00
17.8	12597.00
17.815	12753.00
17.83	13003.00
17.845	12809.00
17.86	12769.00
17.875	12759.00
17.89	12797.00
17.905	12868.00
17.92	12842.00
17.935	12793.00
17.95	12734.00
17.965	12789.00
17.98	12794.00
17.995	12657.00
18.01	12975.00
18.025	12984.00
18.04	12738.00
18.055	12788.00
18.07	12800.00
18.085	12895.00
18.1	13075.00
18.115	12745.00
18.13	13008.00
18.145	12912.00
18.16	12890.00
18.175	12853.00
18.19	12988.00
18.205	12855.00
18.22	12856.00
18.235	13057.00
18.25	12857.00
18.265	12994.00
18.28	13076.00
18.295	12964.00
18.31	13043.00
18.325	13307.00
18.34	13052.00
18.355	13084.00
18.37	13033.00
18.385	12915.00
18.4	12932.00
18.415	13049.00
18.43	13078.00
18.445	13142.00
18.46	13073.00
18.475	13051.00
18.49	13262.00
18.505	13333.00
18.52	13196.00
18.535	12940.00
18.55	13221.00
18.565	13252.00
18.58	13211.00
18.595	13452.00
18.61	13111.00
18.625	13341.00
18.64	13374.00
18.655	13456.00
18.67	13185.00
18.685	13353.00
18.7	13566.00
18.715	13443.00
18.73	13553.00
18.745	13440.00
18.76	13432.00
18.775	13534.00
18.79	13642.00
18.805	13567.00
18.82	13460.00
18.835	13504.00
18.85	13685.00
18.865	13399.00
18.88	13526.00
18.895	13617.00
18.91	13730.00
18.925	13551.00
18.94	13634.00
18.955	13805.00
18.97	13868.00
18.985	13705.00
19	13673.00
19.015	13710.00
19.03	13765.00
19.045	13676.00
19.06	13594.00
19.075	13664.00
19.09	13804.00
19.105	13691.00
19.12	13659.00
19.135	13746.00
19.15	13821.00
19.165	13683.00
19.18	13680.00
19.195	13679.00
19.21	13806.00
19.225	13734.00
19.24	13791.00
19.255	13760.00
19.27	13874.00
19.285	13802.00
19.3	13729.00
19.315	13783.00
19.33	13866.00
19.345	13873.00
19.36	13781.00
19.375	13898.00
19.39	13906.00
19.405	13849.00
19.42	13961.00
19.435	14089.00
19.45	13993.00
19.465	13862.00
19.48	13911.00
19.495	14162.00
19.51	14286.00
19.525	14417.00
19.54	14317.00
19.555	14330.00
19.57	14232.00
19.585	14546.00
19.6	14675.00
19.615	15009.00
19.63	15183.00
19.645	15412.00
19.66	15947.00
19.675	16826.00
19.69	17445.00
19.705	17637.00
19.72	17860.00
19.735	17394.00
19.75	16641.00
19.765	15798.00
19.78	15153.00
19.795	14216.00
19.81	14019.00
19.825	13840.00
19.84	13944.00
19.855	13882.00
19.87	13583.00
19.885	13783.00
19.9	13856.00
19.915	13659.00
19.93	13715.00
19.945	13877.00
19.96	13945.00
19.975	13746.00
19.99	13994.00
20.005	13664.00
20.02	13693.00
20.035	13970.00
20.05	14081.00
20.065	14018.00
20.08	14015.00
20.095	13714.00
20.11	13598.00
20.125	13685.00
20.14	13873.00
20.155	13628.00
20.17	13792.00
20.185	13680.00
20.2	13647.00
20.215	13525.00
20.23	13692.00
20.245	13474.00
20.26	13503.00
20.275	13443.00
20.29	13561.00
20.305	13448.00
20.32	13410.00
20.335	13427.00
20.35	13433.00
20.365	13605.00
20.38	13618.00
20.395	13682.00
20.41	13412.00
20.425	13359.00
20.44	13334.00
20.455	13367.00
20.47	13391.00
20.485	13488.00
20.5	13354.00
20.515	13251.00
20.53	13609.00
20.545	13368.00
20.56	13400.00
20.575	13327.00
20.59	13288.00
20.605	13253.00
20.62	13392.00
20.635	13481.00
20.65	13321.00
20.665	13284.00
20.68	13440.00
20.695	13491.00
20.71	13456.00
20.725	13708.00
20.74	13687.00
20.755	13758.00
20.77	13927.00
20.785	14189.00
20.8	14004.00
20.815	14031.00
20.83	14220.00
20.845	14592.00
20.86	14802.00
20.875	15143.00
20.89	15949.00
20.905	16327.00
20.92	16507.00
20.935	16432.00
20.95	16132.00
20.965	15517.00
20.98	14644.00
20.995	13970.00
21.01	13335.00
21.025	13270.00
21.04	13302.00
21.055	13220.00
21.07	13254.00
21.085	13176.00
21.1	13207.00
21.115	13030.00
21.13	12941.00
21.145	12960.00
21.16	12888.00
21.175	13078.00
21.19	12975.00
21.205	12936.00
21.22	13106.00
21.235	13024.00
21.25	12967.00
21.265	12845.00
21.28	12778.00
21.295	12804.00
21.31	12743.00
21.325	12892.00
21.34	12780.00
21.355	12921.00
21.37	12918.00
21.385	12744.00
21.4	12766.00
21.415	12905.00
21.43	12772.00
21.445	12763.00
21.46	12658.00
21.475	12829.00
21.49	12802.00
21.505	12555.00
21.52	12390.00
21.535	12480.00
21.55	12668.00
21.565	12985.00
21.58	12690.00
21.595	12703.00
21.61	12687.00
21.625	12779.00
21.64	12648.00
21.655	12738.00
21.67	12892.00
21.685	12666.00
21.7	12720.00
21.715	12447.00
21.73	12638.00
21.745	12827.00
21.76	12695.00
21.775	12627.00
21.79	12624.00
21.805	12561.00
21.82	12536.00
21.835	12701.00
21.85	12466.00
21.865	12592.00
21.88	12508.00
21.895	12576.00
21.91	12782.00
21.925	12772.00
21.94	12677.00
21.955	12721.00
21.97	12609.00
21.985	12625.00
22	12466.00
22.015	12709.00
22.03	12513.00
22.045	12702.00
22.06	12741.00
22.075	12750.00
22.09	12646.00
22.105	12598.00
22.12	12702.00
22.135	12699.00
22.15	12738.00
22.165	13063.00
22.18	12918.00
22.195	12738.00
22.21	12855.00
22.225	12847.00
22.24	12966.00
22.255	12876.00
22.27	12932.00
22.285	13282.00
22.3	13204.00
22.315	13471.00
22.33	13825.00
22.345	13660.00
22.36	13834.00
22.375	14227.00
22.39	14376.00
22.405	14720.00
22.42	15293.00
22.435	15622.00
22.45	16364.00
22.465	17027.00
22.48	18281.00
22.495	19378.00
22.51	20770.00
22.525	22119.00
22.54	24263.00
22.555	26625.00
22.57	29406.00
22.585	32596.00
22.6	36101.00
22.615	41233.00
22.63	46469.00
22.645	53647.00
22.66	62199.00
22.675	72036.00
22.69	84656.00
22.705	99588.00
22.72	119797.00
22.735	145772.00
22.75	183927.00
22.765	235230.00
22.78	292665.00
22.795	327665.00
22.81	327133.00
22.825	305574.00
22.84	268312.00
22.855	210267.00
22.87	142232.00
22.885	78986.00
22.9	40417.00
22.915	24991.00
22.93	19903.00
22.945	17938.00
22.96	16877.00
22.975	16184.00
22.99	15559.00
23.005	15127.00
23.02	14932.00
23.035	14547.00
23.05	14357.00
23.065	14212.00
23.08	13951.00
23.095	13868.00
23.11	13814.00
23.125	13709.00
23.14	13612.00
23.155	13516.00
23.17	13446.00
23.185	13309.00
23.2	13206.00
23.215	13164.00
23.23	13165.00
23.245	12909.00
23.26	12914.00
23.275	13098.00
23.29	13149.00
23.305	12933.00
23.32	12848.00
23.335	12843.00
23.35	12798.00
23.365	12635.00
23.38	12704.00
23.395	12802.00
23.41	12683.00
23.425	12620.00
23.44	12453.00
23.455	12527.00
23.47	12465.00
23.485	12522.00
23.5	12411.00
23.515	12375.00
23.53	12369.00
23.545	12363.00
23.56	12348.00
23.575	12415.00
23.59	12324.00
23.605	12439.00
23.62	12564.00
23.635	12604.00
23.65	12869.00
23.665	12748.00
23.68	12835.00
23.695	13022.00
23.71	13081.00
23.725	13302.00
23.74	13427.00
23.755	13756.00
23.77	14019.00
23.785	14407.00
23.8	15112.00
23.815	15815.00
23.83	16756.00
23.845	17813.00
23.86	18399.00
23.875	18105.00
23.89	17755.00
23.905	16828.00
23.92	15688.00
23.935	14454.00
23.95	13428.00
23.965	12712.00
23.98	12499.00
23.995	12455.00
24.01	12455.00
24.025	12456.00
24.04	12252.00
24.055	12366.00
24.07	12150.00
24.085	12358.00
24.1	12258.00
24.115	12229.00
24.13	12285.00
24.145	12549.00
24.16	12648.00
24.175	12571.00
24.19	12955.00
24.205	12996.00
24.22	13119.00
24.235	12870.00
24.25	12627.00
24.265	12523.00
24.28	12474.00
24.295	12211.00
24.31	12013.00
24.325	12190.00
24.34	12108.00
24.355	12130.00
24.37	12221.00
24.385	12284.00
24.4	12185.00
24.415	12381.00
24.43	12314.00
24.445	12301.00
24.46	12437.00
24.475	12689.00
24.49	12486.00
24.505	12541.00
24.52	12664.00
24.535	12629.00
24.55	12851.00
24.565	12780.00
24.58	12957.00
24.595	13025.00
24.61	13093.00
24.625	13290.00
24.64	13158.00
24.655	13298.00
24.67	13650.00
24.685	13581.00
24.7	13711.00
24.715	13706.00
24.73	13850.00
24.745	14052.00
24.76	14206.00
24.775	14532.00
24.79	14436.00
24.805	14550.00
24.82	14705.00
24.835	14891.00
24.85	15050.00
24.865	14971.00
24.88	15109.00
24.895	15090.00
24.91	15529.00
24.925	15451.00
24.94	15646.00
24.955	15984.00
24.97	16157.00
24.985	16477.00
25	16659.00
25.015	16865.00
25.03	16908.00
25.045	17173.00
25.06	17280.00
25.075	17232.00
25.09	16884.00
25.105	16618.00
25.12	16210.00
25.135	15506.00
25.15	14907.00
25.165	14250.00
25.18	13663.00
25.195	13111.00
25.21	12829.00
25.225	12582.00
25.24	12432.00
25.255	12065.00
25.27	12039.00
25.285	12003.00
25.3	12017.00
25.315	11988.00
25.33	11818.00
25.345	11731.00
25.36	11696.00
25.375	11704.00
25.39	11681.00
25.405	11842.00
25.42	11964.00
25.435	11984.00
25.45	11972.00
25.465	12200.00
25.48	12448.00
25.495	12808.00
25.51	13025.00
25.525	13454.00
25.54	13416.00
25.555	13285.00
25.57	12960.00
25.585	12593.00
25.6	12351.00
25.615	11865.00
25.63	11581.00
25.645	11239.00
25.66	11216.00
25.675	11354.00
25.69	11184.00
25.705	10994.00
25.72	10974.00
25.735	11090.00
25.75	11046.00
25.765	11018.00
25.78	11021.00
25.795	10987.00
25.81	11206.00
25.825	10907.00
25.84	11133.00
25.855	11157.00
25.87	10952.00
25.885	11014.00
25.9	11001.00
25.915	11073.00
25.93	10974.00
25.945	11099.00
25.96	11173.00
25.975	10870.00
25.99	10970.00
26.005	10875.00
26.02	10976.00
26.035	10994.00
26.05	11064.00
26.065	11135.00
26.08	10926.00
26.095	10690.00
26.11	10631.00
26.125	10723.00
26.14	10851.00
26.155	10849.00
26.17	10841.00
26.185	10926.00
26.2	10989.00
26.215	10860.00
26.23	11012.00
26.245	10889.00
26.26	11067.00
26.275	10925.00
26.29	10974.00
26.305	10897.00
26.32	10955.00
26.335	11070.00
26.35	11236.00
26.365	11195.00
26.38	11346.00
26.395	11462.00
26.41	11598.00
26.425	11646.00
26.44	11773.00
26.455	12253.00
26.47	12528.00
26.485	12652.00
26.5	13026.00
26.515	13237.00
26.53	13850.00
26.545	14265.00
26.56	14412.00
26.575	14935.00
26.59	15709.00
26.605	16548.00
26.62	17805.00
26.635	19594.00
26.65	21655.00
26.665	23998.00
26.68	27015.00
26.695	31103.00
26.71	36486.00
26.725	43270.00
26.74	52437.00
26.755	65874.00
26.77	82465.00
26.785	98837.00
26.8	108356.00
26.815	108912.00
26.83	102053.00
26.845	93839.00
26.86	81285.00
26.875	63595.00
26.89	44499.00
26.905	28274.00
26.92	18737.00
26.935	14754.00
26.95	13433.00
26.965	12621.00
26.98	12206.00
26.995	12016.00
27.01	11769.00
27.025	11723.00
27.04	11594.00
27.055	11395.00
27.07	11447.00
27.085	11314.00
27.1	11162.00
27.115	11088.00
27.13	11129.00
27.145	11014.00
27.16	10906.00
27.175	10969.00
27.19	10840.00
27.205	10946.00
27.22	11014.00
27.235	10771.00
27.25	10820.00
27.265	10913.00
27.28	10775.00
27.295	10741.00
27.31	10822.00
27.325	10802.00
27.34	10921.00
27.355	10878.00
27.37	10838.00
27.385	10712.00
27.4	10849.00
27.415	10927.00
27.43	10780.00
27.445	10803.00
27.46	10776.00
27.475	10724.00
27.49	10919.00
27.505	10612.00
27.52	10609.00
27.535	10727.00
27.55	10837.00
27.565	10803.00
27.58	10734.00
27.595	10681.00
27.61	10659.00
27.625	10881.00
27.64	10696.00
27.655	10787.00
27.67	10738.00
27.685	10603.00
27.7	10523.00
27.715	10688.00
27.73	10904.00
27.745	10724.00
27.76	10600.00
27.775	10704.00
27.79	10740.00
27.805	10676.00
27.82	10746.00
27.835	10695.00
27.85	10668.00
27.865	10838.00
27.88	10868.00
27.895	10979.00
27.91	11079.00
27.925	11290.00
27.94	11649.00
27.955	11889.00
27.97	12080.00
27.985	12561.00
28	12710.00
28.015	13314.00
28.03	13025.00
28.045	13323.00
28.06	12834.00
28.075	12646.00
28.09	12380.00
28.105	11840.00
28.12	11474.00
28.135	10903.00
28.15	10740.00
28.165	10659.00
28.18	10616.00
28.195	10689.00
28.21	10497.00
28.225	10425.00
28.24	10643.00
28.255	10596.00
28.27	10361.00
28.285	10635.00
28.3	10515.00
28.315	10434.00
28.33	10623.00
28.345	10618.00
28.36	10509.00
28.375	10676.00
28.39	10545.00
28.405	10576.00
28.42	10682.00
28.435	10536.00
28.45	10413.00
28.465	10336.00
28.48	10279.00
28.495	10530.00
28.51	10713.00
28.525	10442.00
28.54	10542.00
28.555	10448.00
28.57	10529.00
28.585	10509.00
28.6	10397.00
28.615	10714.00
28.63	10604.00
28.645	10779.00
28.66	10733.00
28.675	10825.00
28.69	10893.00
28.705	11186.00
28.72	11337.00
28.735	11381.00
28.75	11743.00
28.765	11997.00
28.78	12479.00
28.795	12974.00
28.81	13506.00
28.825	14535.00
28.84	15828.00
28.855	17485.00
28.87	19722.00
28.885	21011.00
28.9	21906.00
28.915	22101.00
28.93	21403.00
28.945	20633.00
28.96	19305.00
28.975	17292.00
28.99	15167.00
29.005	13292.00
29.02	12041.00
29.035	11370.00
29.05	10885.00
29.065	10873.00
29.08	10957.00
29.095	11045.00
29.11	11050.00
29.125	11028.00
29.14	11031.00
29.155	11027.00
29.17	10995.00
29.185	11006.00
29.2	11048.00
29.215	10971.00
29.23	10979.00
29.245	11188.00
29.26	11336.00
29.275	11117.00
29.29	11220.00
29.305	11252.00
29.32	11290.00
29.335	11376.00
29.35	11358.00
29.365	11358.00
29.38	11518.00
29.395	11791.00
29.41	11712.00
29.425	11723.00
29.44	11806.00
29.455	11869.00
29.47	11878.00
29.485	11873.00
29.5	11865.00
29.515	11767.00
29.53	11611.00
29.545	11653.00
29.56	11745.00
29.575	11315.00
29.59	11046.00
29.605	10886.00
29.62	10830.00
29.635	10710.00
29.65	10594.00
29.665	10495.00
29.68	10451.00
29.695	10504.00
29.71	10515.00
29.725	10402.00
29.74	10402.00
29.755	10207.00
29.77	10185.00
29.785	10260.00
29.8	10121.00
29.815	10006.00
29.83	10216.00
29.845	10197.00
29.86	10198.00
29.875	10101.00
29.89	10155.00
29.905	10137.00
29.92	10056.00
29.935	10056.00
29.95	10000.00
29.965	9939.00
29.98	10081.00
29.995	9886.00
30.01	10136.00
30.025	10180.00
30.04	10070.00
30.055	10092.00
30.07	10045.00
30.085	10105.00
30.1	10002.00
30.115	9862.00
30.13	9875.00
30.145	10145.00
30.16	10237.00
30.175	9999.00
30.19	10034.00
30.205	10022.00
30.22	9981.00
30.235	9985.00
30.25	10040.00
30.265	10239.00
30.28	10286.00
30.295	10114.00
30.31	10123.00
30.325	10167.00
30.34	10025.00
30.355	10180.00
30.37	10216.00
30.385	9923.00
30.4	10101.00
30.415	9930.00
30.43	9911.00
30.445	9965.00
30.46	9904.00
30.475	9959.00
30.49	9954.00
30.505	9957.00
30.52	9911.00
30.535	10104.00
30.55	10112.00
30.565	9911.00
30.58	10040.00
30.595	9957.00
30.61	10041.00
30.625	10058.00
30.64	10024.00
30.655	10043.00
30.67	10152.00
30.685	10120.00
30.7	10005.00
30.715	10076.00
30.73	10111.00
30.745	10154.00
30.76	10076.00
30.775	10165.00
30.79	10181.00
30.805	9875.00
30.82	9920.00
30.835	10084.00
30.85	10192.00
30.865	10218.00
30.88	10127.00
30.895	10056.00
30.91	10304.00
30.925	10221.00
30.94	10391.00
30.955	10450.00
30.97	10568.00
30.985	10730.00
31	10494.00
31.015	10813.00
31.03	10811.00
31.045	11195.00
31.06	11459.00
31.075	12003.00
31.09	12519.00
31.105	13156.00
31.12	13815.00
31.135	14323.00
31.15	14545.00
31.165	14561.00
31.18	14210.00
31.195	13690.00
31.21	13031.00
31.225	12340.00
31.24	11427.00
31.255	10761.00
31.27	10286.00
31.285	10141.00
31.3	10134.00
31.315	10024.00
31.33	10150.00
31.345	10073.00
31.36	9910.00
31.375	10066.00
31.39	10023.00
31.405	10145.00
31.42	9942.00
31.435	9904.00
31.45	9903.00
31.465	10045.00
31.48	9840.00
31.495	9908.00
31.51	9750.00
31.525	9846.00
31.54	9900.00
31.555	9922.00
31.57	9765.00
31.585	9795.00
31.6	9981.00
31.615	10159.00
31.63	9977.00
31.645	9802.00
31.66	9820.00
31.675	10035.00
31.69	9931.00
31.705	10000.00
31.72	9991.00
31.735	9926.00
31.75	9864.00
31.765	9960.00
31.78	9955.00
31.795	9905.00
31.81	10056.00
31.825	9986.00
31.84	10089.00
31.855	10078.00
31.87	9898.00
31.885	9914.00
31.9	9992.00
31.915	9855.00
31.93	9866.00
31.945	10119.00
31.96	10168.00
31.975	9971.00
31.99	9882.00
32.005	9929.00
32.02	10039.00
32.035	9962.00
32.05	10035.00
32.065	10023.00
32.08	9783.00
32.095	9987.00
32.11	10039.00
32.125	9873.00
32.14	9959.00
32.155	9984.00
32.17	9892.00
32.185	10088.00
32.2	10223.00
32.215	10112.00
32.23	10308.00
32.245	10434.00
32.26	10789.00
32.275	10850.00
32.29	11359.00
32.305	11417.00
32.32	11947.00
32.335	12510.00
32.35	13245.00
32.365	14109.00
32.38	15469.00
32.395	17344.00
32.41	19599.00
32.425	22741.00
32.44	26450.00
32.455	29663.00
32.47	30615.00
32.485	29990.00
32.5	29414.00
32.515	28071.00
32.53	26196.00
32.545	23448.00
32.56	19752.00
32.575	16054.00
32.59	13095.00
32.605	11355.00
32.62	10745.00
32.635	10541.00
32.65	10391.00
32.665	10372.00
32.68	10269.00
32.695	10227.00
32.71	10286.00
32.725	10215.00
32.74	10204.00
32.755	10309.00
32.77	10291.00
32.785	10321.00
32.8	10107.00
32.815	10268.00
32.83	10193.00
32.845	10086.00
32.86	10166.00
32.875	9995.00
32.89	10082.00
32.905	10054.00
32.92	10080.00
32.935	10132.00
32.95	10047.00
32.965	10014.00
32.98	10059.00
32.995	10265.00
33.01	10248.00
33.025	10072.00
33.04	10027.00
33.055	10071.00
33.07	10251.00
33.085	10230.00
33.1	10161.00
33.115	10236.00
33.13	10313.00
33.145	10396.00
33.16	10375.00
33.175	10660.00
33.19	10912.00
33.205	11112.00
33.22	11364.00
33.235	11556.00
33.25	11635.00
33.265	11650.00
33.28	11483.00
33.295	11235.00
33.31	11137.00
33.325	10929.00
33.34	10642.00
33.355	10342.00
33.37	10304.00
33.385	10044.00
33.4	9976.00
33.415	10032.00
33.43	9917.00
33.445	9766.00
33.46	9829.00
33.475	9868.00
33.49	9932.00
33.505	9896.00
33.52	9955.00
33.535	9803.00
33.55	9835.00
33.565	10005.00
33.58	9783.00
33.595	9906.00
33.61	9933.00
33.625	10121.00
33.64	9858.00
33.655	9974.00
33.67	9820.00
33.685	9969.00
33.7	10069.00
33.715	9872.00
33.73	9823.00
33.745	9897.00
33.76	9949.00
33.775	9925.00
33.79	9826.00
33.805	9723.00
33.82	9918.00
33.835	9803.00
33.85	9861.00
33.865	9890.00
33.88	9848.00
33.895	9838.00
33.91	9852.00
33.925	9693.00
33.94	9760.00
33.955	10001.00
33.97	9823.00
33.985	9780.00
34	9616.00
34.015	10052.00
34.03	9913.00
34.045	9842.00
34.06	9957.00
34.075	9772.00
34.09	9927.00
34.105	9849.00
34.12	9678.00
34.135	9781.00
34.15	9858.00
34.165	10077.00
34.18	10092.00
34.195	9988.00
34.21	9837.00
34.225	9777.00
34.24	9956.00
34.255	10096.00
34.27	9888.00
34.285	9903.00
34.3	10047.00
34.315	9974.00
34.33	9857.00
34.345	10019.00
34.36	9825.00
34.375	10102.00
34.39	9859.00
34.405	9813.00
34.42	10109.00
34.435	9948.00
34.45	9876.00
34.465	9863.00
34.48	10054.00
34.495	10118.00
34.51	10358.00
34.525	10062.00
34.54	10159.00
34.555	10226.00
34.57	10193.00
34.585	10097.00
34.6	10073.00
34.615	10055.00
34.63	9906.00
34.645	9921.00
34.66	9956.00
34.675	9869.00
34.69	9906.00
34.705	9720.00
34.72	9950.00
34.735	9853.00
34.75	9981.00
34.765	10051.00
34.78	10034.00
34.795	9996.00
34.81	9849.00
34.825	10038.00
34.84	10022.00
34.855	10108.00
34.87	10050.00
34.885	10044.00
34.9	9801.00
34.915	9904.00
34.93	9991.00
34.945	9908.00
34.96	10023.00
34.975	10041.00
34.99	10028.00
35.005	10080.00
35.02	10104.00
35.035	10174.00
35.05	10099.00
35.065	10137.00
35.08	10153.00
35.095	10069.00
35.11	10011.00
35.125	9991.00
35.14	10116.00
35.155	10217.00
35.17	10331.00
35.185	10226.00
35.2	10234.00
35.215	10413.00
35.23	10640.00
35.245	10702.00
35.26	10734.00
35.275	10834.00
35.29	11005.00
35.305	11273.00
35.32	11537.00
35.335	11837.00
35.35	12394.00
35.365	13054.00
35.38	13997.00
35.395	15278.00
35.41	16979.00
35.425	19571.00
35.44	22458.00
35.455	24965.00
35.47	26640.00
35.485	27365.00
35.5	26927.00
35.515	26190.00
35.53	25023.00
35.545	23505.00
35.56	21341.00
35.575	18461.00
35.59	15586.00
35.605	13135.00
35.62	11626.00
35.635	10937.00
35.65	10778.00
35.665	10603.00
35.68	10634.00
35.695	10526.00
35.71	10432.00
35.725	10465.00
35.74	10517.00
35.755	10517.00
35.77	10488.00
35.785	10377.00
35.8	10353.00
35.815	10257.00
35.83	10402.00
35.845	10211.00
35.86	10279.00
35.875	10184.00
35.89	10071.00
35.905	10114.00
35.92	10034.00
35.935	9848.00
35.95	9917.00
35.965	9912.00
35.98	9970.00
35.995	9974.00
36.01	9876.00
36.025	9869.00
36.04	9850.00
36.055	9910.00
36.07	9753.00
36.085	9786.00
36.1	9936.00
36.115	9777.00
36.13	9863.00
36.145	9704.00
36.16	9809.00
36.175	9724.00
36.19	9834.00
36.205	9984.00
36.22	9901.00
36.235	9664.00
36.25	9715.00
36.265	9918.00
36.28	9938.00
36.295	10020.00
36.31	10045.00
36.325	10210.00
36.34	10314.00
36.355	10447.00
36.37	10690.00
36.385	10880.00
36.4	11274.00
36.415	11416.00
36.43	11763.00
36.445	11709.00
36.46	11618.00
36.475	11527.00
36.49	11448.00
36.505	11177.00
36.52	10804.00
36.535	10562.00
36.55	10427.00
36.565	10105.00
36.58	9832.00
36.595	9788.00
36.61	9781.00
36.625	9709.00
36.64	9726.00
36.655	9695.00
36.67	9671.00
36.685	9799.00
36.7	9722.00
36.715	9667.00
36.73	9684.00
36.745	9691.00
36.76	9719.00
36.775	9730.00
36.79	9625.00
36.805	9689.00
36.82	9643.00
36.835	9617.00
36.85	9634.00
36.865	9763.00
36.88	9619.00
36.895	9693.00
36.91	9732.00
36.925	9585.00
36.94	9700.00
36.955	9775.00
36.97	9802.00
36.985	10014.00
37	9900.00
37.015	10047.00
37.03	10135.00
37.045	10363.00
37.06	10669.00
37.075	11190.00
37.09	11632.00
37.105	12079.00
37.12	12521.00
37.135	12421.00
37.15	12633.00
37.165	12446.00
37.18	12163.00
37.195	12170.00
37.21	11837.00
37.225	11382.00
37.24	10877.00
37.255	10314.00
37.27	9940.00
37.285	9756.00
37.3	9640.00
37.315	9755.00
37.33	9966.00
37.345	9824.00
37.36	9828.00
37.375	9775.00
37.39	9736.00
37.405	9720.00
37.42	9632.00
37.435	9734.00
37.45	9818.00
37.465	9746.00
37.48	9728.00
37.495	9522.00
37.51	9440.00
37.525	9523.00
37.54	9452.00
37.555	9458.00
37.57	9319.00
37.585	9462.00
37.6	9495.00
37.615	9493.00
37.63	9639.00
37.645	9568.00
37.66	9476.00
37.675	9579.00
37.69	9656.00
37.705	9492.00
37.72	9482.00
37.735	9510.00
37.75	9507.00
37.765	9460.00
37.78	9506.00
37.795	9371.00
37.81	9527.00
37.825	9642.00
37.84	9636.00
37.855	9425.00
37.87	9365.00
37.885	9665.00
37.9	9570.00
37.915	9351.00
37.93	9451.00
37.945	9633.00
37.96	9673.00
37.975	9476.00
37.99	9471.00
38.005	9365.00
38.02	9448.00
38.035	9495.00
38.05	9519.00
38.065	9499.00
38.08	9562.00
38.095	9349.00
38.11	9552.00
38.125	9573.00
38.14	9429.00
38.155	9289.00
38.17	9483.00
38.185	9561.00
38.2	9540.00
38.215	9686.00
38.23	9775.00
38.245	9689.00
38.26	9878.00
38.275	9921.00
38.29	9857.00
38.305	9650.00
38.32	9796.00
38.335	9805.00
38.35	9792.00
38.365	9610.00
38.38	9755.00
38.395	9817.00
38.41	9514.00
38.425	9322.00
38.44	9525.00
38.455	9505.00
38.47	9559.00
38.485	9571.00
38.5	9604.00
38.515	9530.00
38.53	9585.00
38.545	9514.00
38.56	9636.00
38.575	9730.00
38.59	9623.00
38.605	9467.00
38.62	9508.00
38.635	9533.00
38.65	9450.00
38.665	9387.00
38.68	9578.00
38.695	9728.00
38.71	9528.00
38.725	9627.00
38.74	9653.00
38.755	9578.00
38.77	9609.00
38.785	9652.00
38.8	9598.00
38.815	9695.00
38.83	9507.00
38.845	9464.00
38.86	9558.00
38.875	9509.00
38.89	9731.00
38.905	9653.00
38.92	9611.00
38.935	9733.00
38.95	9832.00
38.965	9766.00
38.98	9805.00
38.995	9756.00
39.01	9745.00
39.025	9867.00
39.04	9902.00
39.055	9808.00
39.07	9770.00
39.085	9738.00
39.1	9827.00
39.115	9736.00
39.13	9839.00
39.145	9786.00
39.16	9673.00
39.175	9587.00
39.19	9517.00
39.205	9580.00
39.22	9650.00
39.235	9522.00
39.25	9572.00
39.265	9583.00
39.28	9383.00
39.295	9486.00
39.31	9627.00
39.325	9484.00
39.34	9371.00
39.355	9438.00
39.37	9548.00
39.385	9497.00
39.4	9452.00
39.415	9456.00
39.43	9281.00
39.445	9258.00
39.46	9394.00
39.475	9352.00
39.49	9384.00
39.505	9318.00
39.52	9355.00
39.535	9337.00
39.55	9423.00
39.565	9593.00
39.58	9471.00
39.595	9339.00
39.61	9298.00
39.625	9600.00
39.64	9494.00
39.655	9558.00
39.67	9513.00
39.685	9489.00
39.7	9446.00
39.715	9531.00
39.73	9543.00
39.745	9455.00
39.76	9439.00
39.775	9565.00
39.79	9801.00
39.805	9652.00
39.82	9746.00
39.835	10070.00
39.85	10174.00
39.865	10543.00
39.88	10627.00
39.895	11070.00
39.91	11759.00
39.925	12675.00
39.94	13931.00
39.955	15703.00
39.97	17985.00
39.985	21223.00
40	24695.00
40.015	29338.00
40.03	32908.00
40.045	35712.00
40.06	36750.00
40.075	36511.00
40.09	35479.00
40.105	34256.00
40.12	32331.00
40.135	29738.00
40.15	26314.00
40.165	21732.00
40.18	17330.00
40.195	13806.00
40.21	11728.00
40.225	10866.00
40.24	10258.00
40.255	10134.00
40.27	10010.00
40.285	9803.00
40.3	9537.00
40.315	9719.00
40.33	9642.00
40.345	9692.00
40.36	9589.00
40.375	9692.00
40.39	9475.00
40.405	9489.00
40.42	9482.00
40.435	9457.00
40.45	9531.00
40.465	9378.00
40.48	9412.00
40.495	9476.00
40.51	9459.00
40.525	9232.00
40.54	9423.00
40.555	9689.00
40.57	9596.00
40.585	9483.00
40.6	9524.00
40.615	9564.00
40.63	9743.00
40.645	9695.00
40.66	10011.00
40.675	9949.00
40.69	10008.00
40.705	10126.00
40.72	10128.00
40.735	10134.00
40.75	10045.00
40.765	10020.00
40.78	9930.00
40.795	9917.00
40.81	9738.00
40.825	9615.00
40.84	9549.00
40.855	9473.00
40.87	9385.00
40.885	9306.00
40.9	9242.00
40.915	9312.00
40.93	9368.00
40.945	9404.00
40.96	9236.00
40.975	9172.00
40.99	9134.00
41.005	9245.00
41.02	9280.00
41.035	9196.00
41.05	9363.00
41.065	9314.00
41.08	9137.00
41.095	9170.00
41.11	9250.00
41.125	9193.00
41.14	9118.00
41.155	9241.00
41.17	9327.00
41.185	9263.00
41.2	9248.00
41.215	9014.00
41.23	9046.00
41.245	9082.00
41.26	9104.00
41.275	9106.00
41.29	9173.00
41.305	9058.00
41.32	9017.00
41.335	9147.00
41.35	9113.00
41.365	9134.00
41.38	9101.00
41.395	9030.00
41.41	9122.00
41.425	9207.00
41.44	9178.00
41.455	9111.00
41.47	9081.00
41.485	9019.00
41.5	8979.00
41.515	8966.00
41.53	8883.00
41.545	9114.00
41.56	9198.00
41.575	9004.00
41.59	8917.00
41.605	8910.00
41.62	9011.00
41.635	9183.00
41.65	9086.00
41.665	9143.00
41.68	9160.00
41.695	9122.00
41.71	9173.00
41.725	9127.00
41.74	9100.00
41.755	9219.00
41.77	9278.00
41.785	9216.00
41.8	9102.00
41.815	9137.00
41.83	9152.00
41.845	9130.00
41.86	9235.00
41.875	9048.00
41.89	9026.00
41.905	8897.00
41.92	8993.00
41.935	8919.00
41.95	8878.00
41.965	8874.00
41.98	8944.00
41.995	8966.00
42.01	9036.00
42.025	8987.00
42.04	8889.00
42.055	8891.00
42.07	8926.00
42.085	9051.00
42.1	9012.00
42.115	8924.00
42.13	8943.00
42.145	9013.00
42.16	8981.00
42.175	8819.00
42.19	8869.00
42.205	9034.00
42.22	9154.00
42.235	8963.00
42.25	9204.00
42.265	9156.00
42.28	9215.00
42.295	9502.00
42.31	9684.00
42.325	10143.00
42.34	10494.00
42.355	11026.00
42.37	11132.00
42.385	11215.00
42.4	11289.00
42.415	11569.00
42.43	11666.00
42.445	11927.00
42.46	11844.00
42.475	11928.00
42.49	12358.00
42.505	12766.00
42.52	13598.00
42.535	14710.00
42.55	16557.00
42.565	17733.00
42.58	19203.00
42.595	20000.00
42.61	19858.00
42.625	19755.00
42.64	19288.00
42.655	19073.00
42.67	18396.00
42.685	17355.00
42.7	15808.00
42.715	14143.00
42.73	12335.00
42.745	10766.00
42.76	9629.00
42.775	9430.00
42.79	9133.00
42.805	9126.00
42.82	9030.00
42.835	9006.00
42.85	9025.00
42.865	8959.00
42.88	8844.00
42.895	8859.00
42.91	8902.00
42.925	8746.00
42.94	8982.00
42.955	9104.00
42.97	8895.00
42.985	8919.00
43	8794.00
43.015	8836.00
43.03	8837.00
43.045	8883.00
43.06	8795.00
43.075	8728.00
43.09	8825.00
43.105	8936.00
43.12	8956.00
43.135	8895.00
43.15	8798.00
43.165	8820.00
43.18	8860.00
43.195	8917.00
43.21	8995.00
43.225	8883.00
43.24	8833.00
43.255	8857.00
43.27	8847.00
43.285	8842.00
43.3	8762.00
43.315	8820.00
43.33	8999.00
43.345	8923.00
43.36	8784.00
43.375	8845.00
43.39	8867.00
43.405	8749.00
43.42	8624.00
43.435	8731.00
43.45	8779.00
43.465	8841.00
43.48	8672.00
43.495	8686.00
43.51	8644.00
43.525	8802.00
43.54	8835.00
43.555	8868.00
43.57	8694.00
43.585	8675.00
43.6	8731.00
43.615	8776.00
43.63	8862.00
43.645	8829.00
43.66	8796.00
43.675	8859.00
43.69	8783.00
43.705	8877.00
43.72	9028.00
43.735	8880.00
43.75	8735.00
43.765	8753.00
43.78	8843.00
43.795	8853.00
43.81	8845.00
43.825	8760.00
43.84	8957.00
43.855	8955.00
43.87	9079.00
43.885	9096.00
43.9	9051.00
43.915	9088.00
43.93	9448.00
43.945	9693.00
43.96	9883.00
43.975	10066.00
43.99	10511.00
44.005	10659.00
44.02	10936.00
44.035	10900.00
44.05	11054.00
44.065	10926.00
44.08	10931.00
44.095	10665.00
44.11	10626.00
44.125	10358.00
44.14	10419.00
44.155	9778.00
44.17	9574.00
44.185	9554.00
44.2	9515.00
44.215	9283.00
44.23	9327.00
44.245	9195.00
44.26	9287.00
44.275	9092.00
44.29	9086.00
44.305	8930.00
44.32	8847.00
44.335	8773.00
44.35	8711.00
44.365	8690.00
44.38	8698.00
44.395	8690.00
44.41	8634.00
44.425	8563.00
44.44	8698.00
44.455	8617.00
44.47	8574.00
44.485	8489.00
44.5	8472.00
44.515	8438.00
44.53	8665.00
44.545	8617.00
44.56	8380.00
44.575	8623.00
44.59	8546.00
44.605	8355.00
44.62	8433.00
44.635	8552.00
44.65	8381.00
44.665	8379.00
44.68	8501.00
44.695	8349.00
44.71	8382.00
44.725	8486.00
44.74	8370.00
44.755	8406.00
44.77	8384.00
44.785	8374.00
44.8	8394.00
44.815	8352.00
44.83	8310.00
44.845	8460.00
44.86	8365.00
44.875	8352.00
44.89	8413.00
44.905	8434.00
44.92	8428.00
44.935	8382.00
44.95	8378.00
44.965	8400.00
44.98	8475.00
44.995	8425.00
45.01	8377.00
45.025	8476.00
45.04	8480.00
45.055	8479.00
45.07	8426.00
45.085	8439.00
45.1	8424.00
45.115	8425.00
45.13	8294.00
45.145	8337.00
45.16	8321.00
45.175	8292.00
45.19	8209.00
45.205	8288.00
45.22	8268.00
45.235	8249.00
45.25	8416.00
45.265	8382.00
45.28	8288.00
45.295	8243.00
45.31	8328.00
45.325	8475.00
45.34	8431.00
45.355	8392.00
45.37	8281.00
45.385	8158.00
45.4	8290.00
45.415	8340.00
45.43	8268.00
45.445	8254.00
45.46	8285.00
45.475	8325.00
45.49	8262.00
45.505	8308.00
45.52	8393.00
45.535	8339.00
45.55	8582.00
45.565	8472.00
45.58	8642.00
45.595	8660.00
45.61	8730.00
45.625	8809.00
45.64	8688.00
45.655	8725.00
45.67	8620.00
45.685	8534.00
45.7	8644.00
45.715	8513.00
45.73	8476.00
45.745	8601.00
45.76	8388.00
45.775	8368.00
45.79	8289.00
45.805	8170.00
45.82	8266.00
45.835	8264.00
45.85	8279.00
45.865	8286.00
45.88	8288.00
45.895	8174.00
45.91	8052.00
45.925	8030.00
45.94	8293.00
45.955	8337.00
45.97	8173.00
45.985	8169.00
46	8147.00
46.015	8065.00
46.03	8211.00
46.045	8239.00
46.06	8148.00
46.075	8056.00
46.09	8179.00
46.105	8232.00
46.12	8193.00
46.135	8201.00
46.15	8176.00
46.165	8301.00
46.18	8470.00
46.195	8366.00
46.21	8259.00
46.225	8059.00
46.24	8320.00
46.255	8220.00
46.27	8283.00
46.285	8325.00
46.3	8385.00
46.315	8434.00
46.33	8358.00
46.345	8390.00
46.36	8486.00
46.375	8443.00
46.39	8432.00
46.405	8517.00
46.42	8542.00
46.435	8699.00
46.45	8853.00
46.465	8930.00
46.48	9231.00
46.495	9619.00
46.51	10289.00
46.525	10965.00
46.54	11868.00
46.555	12786.00
46.57	13507.00
46.585	13948.00
46.6	14115.00
46.615	14055.00
46.63	13781.00
46.645	13715.00
46.66	13543.00
46.675	12956.00
46.69	12410.00
46.705	11518.00
46.72	10718.00
46.735	9727.00
46.75	9185.00
46.765	8866.00
46.78	8572.00
46.795	8549.00
46.81	8502.00
46.825	8428.00
46.84	8562.00
46.855	8548.00
46.87	8525.00
46.885	8425.00
46.9	8313.00
46.915	8202.00
46.93	8327.00
46.945	8410.00
46.96	8472.00
46.975	8423.00
46.99	8364.00
47.005	8588.00
47.02	8614.00
47.035	8756.00
47.05	8929.00
47.065	9003.00
47.08	9219.00
47.095	9434.00
47.11	9706.00
47.125	10084.00
47.14	10254.00
47.155	10431.00
47.17	10756.00
47.185	10713.00
47.2	10643.00
47.215	10522.00
47.23	10322.00
47.245	10203.00
47.26	9995.00
47.275	9643.00
47.29	9265.00
47.305	8871.00
47.32	8726.00
47.335	8525.00
47.35	8496.00
47.365	8459.00
47.38	8306.00
47.395	8164.00
47.41	8235.00
47.425	8282.00
47.44	8311.00
47.455	8286.00
47.47	8243.00
47.485	8191.00
47.5	8141.00
47.515	8219.00
47.53	7942.00
47.545	7939.00
47.56	8049.00
47.575	8089.00
47.59	8144.00
47.605	7983.00
47.62	8053.00
47.635	8150.00
47.65	8188.00
47.665	8058.00
47.68	7987.00
47.695	8055.00
47.71	7943.00
47.725	7974.00
47.74	7894.00
47.755	7914.00
47.77	8003.00
47.785	8002.00
47.8	7964.00
47.815	7954.00
47.83	7894.00
47.845	7961.00
47.86	7863.00
47.875	7969.00
47.89	8049.00
47.905	7984.00
47.92	8037.00
47.935	8022.00
47.95	8047.00
47.965	7890.00
47.98	8014.00
47.995	7826.00
48.01	7894.00
48.025	7936.00
48.04	8121.00
48.055	8115.00
48.07	8012.00
48.085	8056.00
48.1	8091.00
48.115	8032.00
48.13	7864.00
48.145	7947.00
48.16	8024.00
48.175	8124.00
48.19	8070.00
48.205	8165.00
48.22	8102.00
48.235	7952.00
48.25	7924.00
48.265	7950.00
48.28	8032.00
48.295	8001.00
48.31	7894.00
48.325	7958.00
48.34	7959.00
48.355	8011.00
48.37	7913.00
48.385	7998.00
48.4	8019.00
48.415	8000.00
48.43	8235.00
48.445	7972.00
48.46	7915.00
48.475	7944.00
48.49	7995.00
48.505	7998.00
48.52	7997.00
48.535	7913.00
48.55	8112.00
48.565	8018.00
48.58	8164.00
48.595	8364.00
48.61	8540.00
48.625	8449.00
48.64	8404.00
48.655	8618.00
48.67	8895.00
48.685	9036.00
48.7	9151.00
48.715	9245.00
48.73	9363.00
48.745	9504.00
48.76	9948.00
48.775	10574.00
48.79	11487.00
48.805	12511.00
48.82	13481.00
48.835	14345.00
48.85	15022.00
48.865	15537.00
48.88	15361.00
48.895	15232.00
48.91	14987.00
48.925	14750.00
48.94	14220.00
48.955	13599.00
48.97	12800.00
48.985	11978.00
49	10726.00
49.015	9773.00
49.03	9007.00
49.045	8594.00
49.06	8260.00
49.075	8081.00
49.09	8073.00
49.105	7996.00
49.12	7969.00
49.135	7894.00
49.15	8025.00
49.165	7883.00
49.18	7889.00
49.195	7917.00
49.21	7984.00
49.225	7894.00
49.24	7946.00
49.255	7973.00
49.27	7919.00
49.285	7936.00
49.3	7776.00
49.315	7783.00
49.33	7876.00
49.345	7933.00
49.36	7782.00
49.375	7733.00
49.39	7758.00
49.405	7757.00
49.42	7806.00
49.435	7745.00
49.45	7822.00
49.465	7816.00
49.48	7918.00
49.495	7942.00
49.51	8024.00
49.525	8121.00
49.54	8315.00
49.555	8530.00
49.57	8527.00
49.585	8483.00
49.6	8565.00
49.615	8761.00
49.63	8689.00
49.645	8481.00
49.66	8580.00
49.675	8594.00
49.69	8501.00
49.705	8522.00
49.72	8236.00
49.735	8180.00
49.75	7952.00
49.765	7802.00
49.78	7722.00
49.795	7650.00
49.81	7792.00
49.825	7702.00
49.84	7869.00
49.855	7917.00
49.87	7726.00
49.885	7691.00
49.9	7667.00
49.915	7693.00
49.93	7597.00
49.945	7748.00
49.96	7922.00
49.975	7766.00
49.99	7646.00
50.005	7621.00
50.02	7772.00
50.035	7847.00
50.05	7786.00
50.065	7722.00
50.08	7884.00
50.095	7769.00
50.11	7831.00
50.125	8095.00
50.14	8168.00
50.155	7971.00
50.17	7986.00
50.185	8070.00
50.2	8212.00
50.215	8017.00
50.23	7971.00
50.245	7914.00
50.26	8012.00
50.275	7922.00
50.29	7691.00
50.305	7662.00
50.32	7547.00
50.335	7546.00
50.35	7648.00
50.365	7538.00
50.38	7646.00
50.395	7596.00
50.41	7769.00
50.425	7681.00
50.44	7555.00
50.455	7662.00
50.47	7605.00
50.485	7525.00
50.5	7493.00
50.515	7578.00
50.53	7839.00
50.545	7663.00
50.56	7581.00
50.575	7634.00
50.59	7583.00
50.605	7684.00
50.62	7697.00
50.635	7738.00
50.65	7600.00
50.665	7526.00
50.68	7652.00
50.695	7512.00
50.71	7683.00
50.725	7604.00
50.74	7552.00
50.755	7559.00
50.77	7516.00
50.785	7559.00
50.8	7570.00
50.815	7471.00
50.83	7522.00
50.845	7507.00
50.86	7422.00
50.875	7542.00
50.89	7736.00
50.905	7689.00
50.92	7570.00
50.935	7596.00
50.95	7589.00
50.965	7587.00
50.98	7587.00
50.995	7534.00
51.01	7565.00
51.025	7751.00
51.04	7757.00
51.055	7646.00
51.07	7693.00
51.085	7640.00
51.1	7586.00
51.115	7546.00
51.13	7617.00
51.145	7591.00
51.16	7600.00
51.175	7563.00
51.19	7390.00
51.205	7492.00
51.22	7681.00
51.235	7516.00
51.25	7559.00
51.265	7555.00
51.28	7605.00
51.295	7596.00
51.31	7572.00
51.325	7487.00
51.34	7528.00
51.355	7614.00
51.37	7536.00
51.385	7518.00
51.4	7572.00
51.415	7603.00
51.43	7543.00
51.445	7601.00
51.46	7598.00
51.475	7639.00
51.49	7590.00
51.505	7733.00
51.52	7641.00
51.535	7706.00
51.55	7882.00
51.565	7819.00
51.58	7906.00
51.595	7729.00
51.61	7807.00
51.625	7887.00
51.64	7778.00
51.655	7842.00
51.67	7748.00
51.685	7790.00
51.7	7751.00
51.715	7589.00
51.73	7631.00
51.745	7620.00
51.76	7598.00
51.775	7578.00
51.79	7524.00
51.805	7604.00
51.82	7531.00
51.835	7512.00
51.85	7364.00
51.865	7329.00
51.88	7465.00
51.895	7326.00
51.91	7463.00
51.925	7371.00
51.94	7320.00
51.955	7423.00
51.97	7414.00
51.985	7331.00
52	7458.00
52.015	7327.00
52.03	7343.00
52.045	7399.00
52.06	7369.00
52.075	7284.00
52.09	7333.00
52.105	7388.00
52.12	7529.00
52.135	7595.00
52.15	7502.00
52.165	7519.00
52.18	7403.00
52.195	7434.00
52.21	7382.00
52.225	7261.00
52.24	7526.00
52.255	7546.00
52.27	7611.00
52.285	7591.00
52.3	7661.00
52.315	7653.00
52.33	7630.00
52.345	7753.00
52.36	7869.00
52.375	8083.00
52.39	8405.00
52.405	8876.00
52.42	9269.00
52.435	9912.00
52.45	10460.00
52.465	10722.00
52.48	11084.00
52.495	11408.00
52.51	11177.00
52.525	11060.00
52.54	10988.00
52.555	11122.00
52.57	10732.00
52.585	10600.00
52.6	10147.00
52.615	9712.00
52.63	9047.00
52.645	8458.00
52.66	8124.00
52.675	7940.00
52.69	7712.00
52.705	7553.00
52.72	7513.00
52.735	7395.00
52.75	7398.00
52.765	7440.00
52.78	7686.00
52.795	7607.00
52.81	7459.00
52.825	7526.00
52.84	7692.00
52.855	7645.00
52.87	7511.00
52.885	7522.00
52.9	7566.00
52.915	7637.00
52.93	7615.00
52.945	7757.00
52.96	7971.00
52.975	7993.00
52.99	8087.00
53.005	8058.00
53.02	8109.00
53.035	8094.00
53.05	8174.00
53.065	8226.00
53.08	8126.00
53.095	7989.00
53.11	8088.00
53.125	8035.00
53.14	7889.00
53.155	7844.00
53.17	7798.00
53.185	7765.00
53.2	7588.00
53.215	7445.00
53.23	7462.00
53.245	7436.00
53.26	7533.00
53.275	7501.00
53.29	7421.00
53.305	7403.00
53.32	7517.00
53.335	7477.00
53.35	7431.00
53.365	7370.00
53.38	7327.00
53.395	7428.00
53.41	7453.00
53.425	7496.00
53.44	7460.00
53.455	7449.00
53.47	7347.00
53.485	7378.00
53.5	7406.00
53.515	7397.00
53.53	7432.00
53.545	7418.00
53.56	7343.00
53.575	7305.00
53.59	7352.00
53.605	7358.00
53.62	7372.00
53.635	7450.00
53.65	7532.00
53.665	7380.00
53.68	7366.00
53.695	7371.00
53.71	7355.00
53.725	7317.00
53.74	7339.00
53.755	7403.00
53.77	7432.00
53.785	7359.00
53.8	7407.00
53.815	7293.00
53.83	7348.00
53.845	7405.00
53.86	7379.00
53.875	7432.00
53.89	7493.00
53.905	7511.00
53.92	7447.00
53.935	7320.00
53.95	7307.00
53.965	7396.00
53.98	7306.00
53.995	7335.00
54.01	7315.00
54.025	7362.00
54.04	7358.00
54.055	7472.00
54.07	7534.00
54.085	7455.00
54.1	7289.00
54.115	7390.00
54.13	7379.00
54.145	7377.00
54.16	7518.00
54.175	7563.00
54.19	7302.00
54.205	7400.00
54.22	7296.00
54.235	7336.00
54.25	7386.00
54.265	7416.00
54.28	7347.00
54.295	7416.00
54.31	7561.00
54.325	7691.00
54.34	7787.00
54.355	7878.00
54.37	8047.00
54.385	8243.00
54.4	8003.00
54.415	8186.00
54.43	8336.00
54.445	8295.00
54.46	8425.00
54.475	8521.00
54.49	8479.00
54.505	8597.00
54.52	8536.00
54.535	8496.00
54.55	8668.00
54.565	8541.00
54.58	8534.00
54.595	8349.00
54.61	8323.00
54.625	8402.00
54.64	8269.00
54.655	8242.00
54.67	8179.00
54.685	8096.00
54.7	7976.00
54.715	7739.00
54.73	7678.00
54.745	7422.00
54.76	7416.00
54.775	7404.00
54.79	7284.00
54.805	7290.00
54.82	7307.00
54.835	7230.00
54.85	7378.00
54.865	7287.00
54.88	7208.00
54.895	7238.00
54.91	7283.00
54.925	7249.00
54.94	7105.00
54.955	7212.00
54.97	7220.00
54.985	7267.00
55	7255.00
55.015	7249.00
55.03	7240.00
55.045	7286.00
55.06	7264.00
55.075	7219.00
55.09	7281.00
55.105	7170.00
55.12	7209.00
55.135	7224.00
55.15	7248.00
55.165	7354.00
55.18	7429.00
55.195	7450.00
55.21	7598.00
55.225	7542.00
55.24	7627.00
55.255	7689.00
55.27	7636.00
55.285	7700.00
55.3	7690.00
55.315	7655.00
55.33	7729.00
55.345	7659.00
55.36	7547.00
55.375	7568.00
55.39	7472.00
55.405	7411.00
55.42	7310.00
55.435	7298.00
55.45	7270.00
55.465	7191.00
55.48	7034.00
55.495	7249.00
55.51	7099.00
55.525	7157.00
55.54	7130.00
55.555	7082.00
55.57	6990.00
55.585	7053.00
55.6	7077.00
55.615	7061.00
55.63	7129.00
55.645	7147.00
55.66	7331.00
55.675	7386.00
55.69	7674.00
55.705	7556.00
55.72	7797.00
55.735	7847.00
55.75	7988.00
55.765	8126.00
55.78	8155.00
55.795	8139.00
55.81	8134.00
55.825	7912.00
55.84	8105.00
55.855	7966.00
55.87	7777.00
55.885	7667.00
55.9	7616.00
55.915	7444.00
55.93	7400.00
55.945	7365.00
55.96	7385.00
55.975	7167.00
55.99	6935.00
56.005	7088.00
56.02	7115.00
56.035	7153.00
56.05	7071.00
56.065	7018.00
56.08	7242.00
56.095	6997.00
56.11	7020.00
56.125	6965.00
56.14	6922.00
56.155	6978.00
56.17	7007.00
56.185	6954.00
56.2	7075.00
56.215	7015.00
56.23	7093.00
56.245	6910.00
56.26	7060.00
56.275	7046.00
56.29	7104.00
56.305	6941.00
56.32	6953.00
56.335	6915.00
56.35	6919.00
56.365	7005.00
56.38	6974.00
56.395	7024.00
56.41	7025.00
56.425	6946.00
56.44	7009.00
56.455	6907.00
56.47	7017.00
56.485	7026.00
56.5	7121.00
56.515	6979.00
56.53	7058.00
56.545	6985.00
56.56	7055.00
56.575	7099.00
56.59	6968.00
56.605	6869.00
56.62	6950.00
56.635	6982.00
56.65	6912.00
56.665	6867.00
56.68	6921.00
56.695	6881.00
56.71	6951.00
56.725	7040.00
56.74	6928.00
56.755	6994.00
56.77	7075.00
56.785	6967.00
56.8	6901.00
56.815	6957.00
56.83	6911.00
56.845	7014.00
56.86	7025.00
56.875	6886.00
56.89	6990.00
56.905	6989.00
56.92	6998.00
56.935	7045.00
56.95	6843.00
56.965	6882.00
56.98	6987.00
56.995	7012.00
57.01	6914.00
57.025	6974.00
57.04	7064.00
57.055	7044.00
57.07	7015.00
57.085	7043.00
57.1	7068.00
57.115	7051.00
57.13	7128.00
57.145	7156.00
57.16	7071.00
57.175	7089.00
57.19	7055.00
57.205	7025.00
57.22	7097.00
57.235	7021.00
57.25	7040.00
57.265	7162.00
57.28	7079.00
57.295	6875.00
57.31	6935.00
57.325	6920.00
57.34	6874.00
57.355	6900.00
57.37	6986.00
57.385	6989.00
57.4	7005.00
57.415	6904.00
57.43	6840.00
57.445	6839.00
57.46	6793.00
57.475	6911.00
57.49	6903.00
57.505	6846.00
57.52	6866.00
57.535	6929.00
57.55	6935.00
57.565	6894.00
57.58	6962.00
57.595	6908.00
57.61	6875.00
57.625	6972.00
57.64	6858.00
57.655	6948.00
57.67	6931.00
57.685	6935.00
57.7	6863.00
57.715	6855.00
57.73	6862.00
57.745	6825.00
57.76	6821.00
57.775	6911.00
57.79	6894.00
57.805	6843.00
57.82	6800.00
57.835	6902.00
57.85	6974.00
57.865	7183.00
57.88	7230.00
57.895	7357.00
57.91	7400.00
57.925	7429.00
57.94	7606.00
57.955	7636.00
57.97	7608.00
57.985	7722.00
